" File: Users\nstheobald.FORTLEWIS.005\Desktop\R
" SCOPE->  Wave:902.92nm  Pix:1050  Val:2714.568  Time:5000ms  Avg:1  Sm:1  Sg:0  Tc:off  SNAP  Xt:3  Ch:1   1663.
 795.00  2.0607E+003
 795.25  2.0793E+003
 795.50  2.1608E+003
 795.75  2.1291E+003
 796.00  2.0106E+003
 796.25  2.1210E+003
 796.50  2.2195E+003
 796.75  2.2304E+003
 797.00  2.2585E+003
 797.25  2.3221E+003
 797.50  2.4326E+003
 797.75  2.4353E+003
 798.00  2.3770E+003
 798.25  2.4534E+003
 798.50  2.7504E+003
 798.75  3.0956E+003
 799.00  3.3494E+003
 799.25  3.5887E+003
 799.50  3.6413E+003
 799.75  3.6135E+003
 800.00  3.5653E+003
 800.25  3.5053E+003
 800.50  3.4593E+003
 800.75  3.4287E+003
 801.00  3.5357E+003
 801.25  3.7061E+003
 801.50  3.7622E+003
 801.75  3.7643E+003
 802.00  3.8648E+003
 802.25  3.8189E+003
 802.50  3.8170E+003
 802.75  3.9335E+003
 803.00  3.9144E+003
 803.25  3.7194E+003
 803.50  3.5911E+003
 803.75  3.5985E+003
 804.00  3.6013E+003
 804.25  3.5921E+003
 804.50  3.6938E+003
 804.75  3.8186E+003
 805.00  3.9756E+003
 805.25  4.2006E+003
 805.50  4.3098E+003
 805.75  4.2285E+003
 806.00  4.1306E+003
 806.25  4.0076E+003
 806.50  3.9083E+003
 806.75  3.7986E+003
 807.00  3.7586E+003
 807.25  3.8701E+003
 807.50  3.9293E+003
 807.75  3.8965E+003
 808.00  3.8499E+003
 808.25  3.8261E+003
 808.50  3.8667E+003
 808.75  3.9190E+003
 809.00  3.8998E+003
 809.25  3.8553E+003
 809.50  3.7504E+003
 809.75  3.6494E+003
 810.00  3.6136E+003
 810.25  3.4866E+003
 810.50  3.4225E+003
 810.75  3.5782E+003
 811.00  3.7279E+003
 811.25  3.6832E+003
 811.50  3.5854E+003
 811.75  3.5414E+003
 812.00  3.6230E+003
 812.25  3.7220E+003
 812.50  3.7741E+003
 812.75  3.7723E+003
 813.00  3.6679E+003
 813.25  3.5640E+003
 813.50  3.5563E+003
 813.75  3.5696E+003
 814.00  3.5295E+003
 814.25  3.5278E+003
 814.50  3.5710E+003
 814.75  3.5776E+003
 815.00  3.5161E+003
 815.25  3.5257E+003
 815.50  3.5176E+003
 815.75  3.4805E+003
 816.00  3.5349E+003
 816.25  3.4830E+003
 816.50  3.4247E+003
 816.75  3.4605E+003
 817.00  3.3643E+003
 817.25  3.2187E+003
 817.50  3.3338E+003
 817.75  3.4138E+003
 818.00  3.2753E+003
 818.25  3.1921E+003
 818.50  3.2936E+003
 818.75  3.4707E+003
 819.00  3.5631E+003
 819.25  3.5779E+003
 819.50  3.5952E+003
 819.75  3.5468E+003
 820.00  3.3970E+003
 820.25  3.2255E+003
 820.50  3.1770E+003
 820.75  3.3100E+003
 821.00  3.4381E+003
 821.25  3.5035E+003
 821.50  3.4283E+003
 821.75  3.2963E+003
 822.00  3.4116E+003
 822.25  3.5015E+003
 822.50  3.3364E+003
 822.75  3.2060E+003
 823.00  3.1432E+003
 823.25  3.1206E+003
 823.50  3.1015E+003
 823.75  3.1457E+003
 824.00  3.2828E+003
 824.25  3.3565E+003
 824.50  3.2604E+003
 824.75  3.0706E+003
 825.00  3.0060E+003
 825.25  3.0630E+003
 825.50  3.2574E+003
 825.75  3.4391E+003
 826.00  3.5077E+003
 826.25  3.4502E+003
 826.50  3.3231E+003
 826.75  3.2147E+003
 827.00  3.1470E+003
 827.25  3.0753E+003
 827.50  3.1182E+003
 827.75  3.1066E+003
 828.00  3.0522E+003
 828.25  3.1490E+003
 828.50  3.2145E+003
 828.75  3.1627E+003
 829.00  3.1071E+003
 829.25  3.1249E+003
 829.50  3.1753E+003
 829.75  3.1705E+003
 830.00  3.1289E+003
 830.25  3.2973E+003
 830.50  3.6206E+003
 830.75  3.8778E+003
 831.00  3.9114E+003
 831.25  3.7114E+003
 831.50  3.5139E+003
 831.75  3.3863E+003
 832.00  3.3006E+003
 832.25  3.4067E+003
 832.50  3.5533E+003
 832.75  3.5785E+003
 833.00  3.5595E+003
 833.25  3.4822E+003
 833.50  3.4276E+003
 833.75  3.3914E+003
 834.00  3.3181E+003
 834.25  3.2474E+003
 834.50  3.1587E+003
 834.75  3.1604E+003
 835.00  3.2419E+003
 835.25  3.2773E+003
 835.50  3.2041E+003
 835.75  3.2146E+003
 836.00  3.3139E+003
 836.25  3.3184E+003
 836.50  3.3058E+003
 836.75  3.3357E+003
 837.00  3.3937E+003
 837.25  3.4622E+003
 837.50  3.4659E+003
 837.75  3.3675E+003
 838.00  3.2406E+003
 838.25  3.3562E+003
 838.50  3.5860E+003
 838.75  3.5309E+003
 839.00  3.3035E+003
 839.25  3.2358E+003
 839.50  3.2922E+003
 839.75  3.2750E+003
 840.00  3.0921E+003
 840.25  2.8736E+003
 840.50  2.8055E+003
 840.75  2.8521E+003
 841.00  2.9392E+003
 841.25  2.9700E+003
 841.50  3.0274E+003
 841.75  3.1344E+003
 842.00  3.1624E+003
 842.25  3.2059E+003
 842.50  3.2994E+003
 842.75  3.2844E+003
 843.00  3.3121E+003
 843.25  3.4077E+003
 843.50  3.4813E+003
 843.75  3.4700E+003
 844.00  3.3379E+003
 844.25  3.1330E+003
 844.50  2.8675E+003
 844.75  2.7047E+003
 845.00  2.8008E+003
 845.25  2.9427E+003
 845.50  3.0479E+003
 845.75  3.1214E+003
 846.00  3.3146E+003
 846.25  3.5065E+003
 846.50  3.4242E+003
 846.75  3.3213E+003
 847.00  3.2850E+003
 847.25  3.0803E+003
 847.50  2.7977E+003
 847.75  2.6568E+003
 848.00  2.6863E+003
 848.25  2.6678E+003
 848.50  2.6480E+003
 848.75  2.8240E+003
 849.00  3.0242E+003
 849.25  2.9535E+003
 849.50  2.8552E+003
 849.75  2.8950E+003
 850.00  2.9611E+003
 850.25  3.0037E+003
 850.50  2.9211E+003
 850.75  2.8221E+003
 851.00  2.7927E+003
 851.25  2.7787E+003
 851.50  2.7940E+003
 851.75  2.8266E+003
 852.00  2.9369E+003
 852.25  2.9761E+003
 852.50  2.9526E+003
 852.75  3.0558E+003
 853.00  3.1551E+003
 853.25  3.1912E+003
 853.50  3.2336E+003
 853.75  3.1723E+003
 854.00  3.0065E+003
 854.25  2.7706E+003
 854.50  2.5842E+003
 854.75  2.6351E+003
 855.00  2.8667E+003
 855.25  2.9764E+003
 855.50  2.8962E+003
 855.75  2.8590E+003
 856.00  3.0087E+003
 856.25  3.1173E+003
 856.50  3.1237E+003
 856.75  3.1196E+003
 857.00  3.0657E+003
 857.25  3.0396E+003
 857.50  3.0884E+003
 857.75  3.0782E+003
 858.00  2.8377E+003
 858.25  2.5760E+003
 858.50  2.6233E+003
 858.75  2.7874E+003
 859.00  2.7136E+003
 859.25  2.6749E+003
 859.50  2.7962E+003
 859.75  2.9162E+003
 860.00  2.9397E+003
 860.25  2.9212E+003
 860.50  2.9678E+003
 860.75  2.9401E+003
 861.00  2.7320E+003
 861.25  2.6321E+003
 861.50  2.7675E+003
 861.75  2.8994E+003
 862.00  2.8982E+003
 862.25  2.8166E+003
 862.50  2.7123E+003
 862.75  2.6937E+003
 863.00  2.7156E+003
 863.25  2.7076E+003
 863.50  2.7171E+003
 863.75  2.7743E+003
 864.00  2.8344E+003
 864.25  2.8906E+003
 864.50  2.9398E+003
 864.75  2.8532E+003
 865.00  2.7159E+003
 865.25  2.8412E+003
 865.50  3.0227E+003
 865.75  3.0253E+003
 866.00  2.8583E+003
 866.25  2.7602E+003
 866.50  2.8196E+003
 866.75  2.9371E+003
 867.00  2.9429E+003
 867.25  2.8979E+003
 867.50  2.8745E+003
 867.75  2.9529E+003
 868.00  3.1006E+003
 868.25  3.1820E+003
 868.50  3.1329E+003
 868.75  3.0349E+003
 869.00  3.0011E+003
 869.25  3.1217E+003
 869.50  3.2680E+003
 869.75  3.1712E+003
 870.00  3.0928E+003
 870.25  3.1124E+003
 870.50  3.1307E+003
 870.75  3.1957E+003
 871.00  3.2387E+003
 871.25  3.1216E+003
 871.50  2.9778E+003
 871.75  3.0647E+003
 872.00  3.0981E+003
 872.25  2.9935E+003
 872.50  2.9497E+003
 872.75  2.9820E+003
 873.00  2.9043E+003
 873.25  2.7985E+003
 873.50  2.9323E+003
 873.75  3.0721E+003
 874.00  2.9844E+003
 874.25  2.9108E+003
 874.50  3.0961E+003
 874.75  3.3062E+003
 875.00  3.2699E+003
 875.25  3.1148E+003
 875.50  3.0306E+003
 875.75  3.1086E+003
 876.00  3.1099E+003
 876.25  3.0223E+003
 876.50  2.9667E+003
 876.75  2.8460E+003
 877.00  2.7477E+003
 877.25  2.7979E+003
 877.50  2.9094E+003
 877.75  2.8534E+003
 878.00  2.7014E+003
 878.25  2.7442E+003
 878.50  2.9334E+003
 878.75  3.0351E+003
 879.00  3.0180E+003
 879.25  2.9797E+003
 879.50  2.8608E+003
 879.75  2.8420E+003
 880.00  2.9164E+003
 880.25  2.9270E+003
 880.50  2.8828E+003
 880.75  2.7634E+003
 881.00  2.7792E+003
 881.25  2.8247E+003
 881.50  2.8239E+003
 881.75  2.7927E+003
 882.00  2.6606E+003
 882.25  2.5854E+003
 882.50  2.6601E+003
 882.75  2.7185E+003
 883.00  2.7003E+003
 883.25  2.6626E+003
 883.50  2.7265E+003
 883.75  2.6452E+003
 884.00  2.5312E+003
 884.25  2.5018E+003
 884.50  2.4975E+003
 884.75  2.5205E+003
 885.00  2.5028E+003
 885.25  2.5455E+003
 885.50  2.6776E+003
 885.75  2.7371E+003
 886.00  2.6580E+003
 886.25  2.6040E+003
 886.50  2.6123E+003
 886.75  2.6360E+003
 887.00  2.5796E+003
 887.25  2.5380E+003
 887.50  2.5585E+003
 887.75  2.5546E+003
 888.00  2.5326E+003
 888.25  2.4355E+003
 888.50  2.3365E+003
 888.75  2.3658E+003
 889.00  2.4376E+003
 889.25  2.4624E+003
 889.50  2.5093E+003
 889.75  2.5591E+003
 890.00  2.5764E+003
 890.25  2.6048E+003
 890.50  2.5520E+003
 890.75  2.5154E+003
 891.00  2.5204E+003
 891.25  2.5875E+003
 891.50  2.5660E+003
 891.75  2.4048E+003
 892.00  2.3175E+003
 892.25  2.4203E+003
 892.50  2.6344E+003
 892.75  2.6366E+003
 893.00  2.4686E+003
 893.25  2.4571E+003
 893.50  2.7253E+003
 893.75  2.9159E+003
 894.00  2.9612E+003
 894.25  2.8456E+003
 894.50  2.6086E+003
 894.75  2.5548E+003
 895.00  2.6051E+003
 895.25  2.6091E+003
 895.50  2.5302E+003
 895.75  2.4144E+003
 896.00  2.3569E+003
 896.25  2.4005E+003
 896.50  2.5236E+003
 896.75  2.6115E+003
 897.00  2.5581E+003
 897.25  2.5758E+003
 897.50  2.7555E+003
 897.75  2.8527E+003
 898.00  2.7484E+003
 898.25  2.5574E+003
 898.50  2.5711E+003
 898.75  2.6201E+003
 899.00  2.5888E+003
 899.25  2.4899E+003
 899.50  2.3356E+003
 899.75  2.2239E+003
 900.00  2.1662E+003
 900.25  2.2432E+003
 900.50  2.4845E+003
 900.75  2.5796E+003
 901.00  2.6234E+003
 901.25  2.6353E+003
 901.50  2.5712E+003
 901.75  2.5658E+003
 902.00  2.5345E+003
 902.25  2.5610E+003
 902.50  2.6594E+003
 902.75  2.7162E+003
 903.00  2.7010E+003
 903.25  2.6034E+003
 903.50  2.4920E+003
 903.75  2.4897E+003
 904.00  2.5748E+003
 904.25  2.6685E+003
 904.50  2.6918E+003
 904.75  2.6368E+003
 905.00  2.6384E+003
 905.25  2.5674E+003
 905.50  2.3955E+003
 905.75  2.2838E+003
 906.00  2.3263E+003
 906.25  2.4797E+003
 906.50  2.5971E+003
 906.75  2.5526E+003
 907.00  2.4924E+003
 907.25  2.4769E+003
 907.50  2.5159E+003
 907.75  2.5859E+003
 908.00  2.5743E+003
 908.25  2.4707E+003
 908.50  2.3393E+003
 908.75  2.2857E+003
 909.00  2.3920E+003
 909.25  2.4665E+003
 909.50  2.4222E+003
 909.75  2.3842E+003
 910.00  2.3822E+003
 910.25  2.2450E+003
 910.50  2.0402E+003
 910.75  2.1034E+003
 911.00  2.2277E+003
 911.25  2.2504E+003
 911.50  2.3145E+003
 911.75  2.4297E+003
 912.00  2.5878E+003
 912.25  2.6979E+003
 912.50  2.7580E+003
 912.75  2.7619E+003
 913.00  2.7197E+003
 913.25  2.6499E+003
 913.50  2.6009E+003
 913.75  2.6237E+003
 914.00  2.6921E+003
 914.25  2.7287E+003
 914.50  2.6452E+003
 914.75  2.5724E+003
 915.00  2.6145E+003
 915.25  2.6545E+003
 915.50  2.6706E+003
 915.75  2.5691E+003
 916.00  2.4093E+003
 916.25  2.5127E+003
 916.50  2.6193E+003
 916.75  2.5130E+003
 917.00  2.4833E+003
 917.25  2.5412E+003
 917.50  2.4979E+003
 917.75  2.3662E+003
 918.00  2.2399E+003
 918.25  2.1869E+003
 918.50  2.2442E+003
 918.75  2.2548E+003
 919.00  2.2798E+003
 919.25  2.3900E+003
 919.50  2.4579E+003
 919.75  2.4825E+003
 920.00  2.4897E+003
 920.25  2.4624E+003
 920.50  2.4484E+003
 920.75  2.4388E+003
 921.00  2.2690E+003
 921.25  2.0906E+003
 921.50  2.0667E+003
 921.75  2.1064E+003
 922.00  2.1026E+003
 922.25  2.1430E+003
 922.50  2.2258E+003
 922.75  2.2599E+003
 923.00  2.2665E+003
 923.25  2.4167E+003
 923.50  2.4505E+003
 923.75  2.3733E+003
 924.00  2.3194E+003
 924.25  2.3528E+003
 924.50  2.3920E+003
 924.75  2.4554E+003
 925.00  2.5006E+003
 925.25  2.4827E+003
 925.50  2.4562E+003
 925.75  2.4773E+003
 926.00  2.3569E+003
 926.25  2.2166E+003
 926.50  2.2566E+003
 926.75  2.3006E+003
 927.00  2.2810E+003
 927.25  2.2574E+003
 927.50  2.3232E+003
 927.75  2.4113E+003
 928.00  2.4506E+003
 928.25  2.4190E+003
 928.50  2.3195E+003
 928.75  2.2372E+003
 929.00  2.2376E+003
 929.25  2.2965E+003
 929.50  2.3450E+003
 929.75  2.4731E+003
 930.00  2.6141E+003
 930.25  2.5622E+003
 930.50  2.5067E+003
 930.75  2.4466E+003
 931.00  2.3815E+003
 931.25  2.3897E+003
 931.50  2.2942E+003
 931.75  2.1759E+003
 932.00  2.2059E+003
 932.25  2.2460E+003
 932.50  2.2178E+003
 932.75  2.1594E+003
 933.00  2.1743E+003
 933.25  2.1701E+003
 933.50  2.1998E+003
 933.75  2.2864E+003
 934.00  2.3943E+003
 934.25  2.5042E+003
 934.50  2.6015E+003
 934.75  2.6567E+003
 935.00  2.6653E+003
 935.25  2.6787E+003
 935.50  2.7192E+003
 935.75  2.6055E+003
 936.00  2.2542E+003
 936.25  1.9227E+003
 936.50  1.7009E+003
 936.75  1.7115E+003
 937.00  1.9679E+003
 937.25  2.1511E+003
 937.50  2.2118E+003
 937.75  2.2865E+003
 938.00  2.2866E+003
 938.25  2.2244E+003
 938.50  2.2217E+003
 938.75  2.3537E+003
 939.00  2.4038E+003
 939.25  2.2400E+003
 939.50  2.0895E+003
 939.75  2.1099E+003
 940.00  2.1618E+003
 940.25  2.0816E+003
 940.50  1.8762E+003
 940.75  1.7883E+003
 941.00  1.9388E+003
 941.25  2.1849E+003
 941.50  2.3145E+003
 941.75  2.2731E+003
 942.00  2.2074E+003
 942.25  2.2403E+003
 942.50  2.3092E+003
 942.75  2.3179E+003
 943.00  2.2875E+003
 943.25  2.2398E+003
 943.50  2.1303E+003
 943.75  2.0252E+003
 944.00  2.0019E+003
 944.25  1.9413E+003
 944.50  1.9181E+003
 944.75  1.9053E+003
 945.00  1.9593E+003
 945.25  1.9908E+003
 945.50  1.9363E+003
 945.75  1.8943E+003
 946.00  1.8521E+003
 946.25  1.9085E+003
 946.50  2.0429E+003
 946.75  2.1043E+003
 947.00  2.1312E+003
 947.25  2.1660E+003
 947.50  2.0829E+003
 947.75  2.0967E+003
 948.00  2.1814E+003
 948.25  2.1816E+003
 948.50  2.1694E+003
 948.75  2.3121E+003
 949.00  2.5067E+003
 949.25  2.5407E+003
 949.50  2.4774E+003
 949.75  2.2791E+003
 950.00  2.0333E+003
 950.25  2.0166E+003
 950.50  2.1184E+003
 950.75  2.1353E+003
 951.00  2.1914E+003
 951.25  2.2040E+003
 951.50  2.1440E+003
 951.75  2.0694E+003
 952.00  2.0767E+003
 952.25  2.0423E+003
 952.50  2.0452E+003
 952.75  2.1192E+003
 953.00  2.1739E+003
 953.25  2.1521E+003
 953.50  2.2316E+003
 953.75  2.3964E+003
 954.00  2.4753E+003
 954.25  2.5665E+003
 954.50  2.4828E+003
 954.75  2.2747E+003
 955.00  2.2328E+003
 955.25  2.2009E+003
 955.50  2.1284E+003
 955.75  2.1266E+003
 956.00  2.0591E+003
 956.25  2.0365E+003
 956.50  2.1344E+003
 956.75  2.1894E+003
 957.00  2.2437E+003
 957.25  2.2171E+003
 957.50  2.1598E+003
 957.75  2.0502E+003
 958.00  1.9704E+003
 958.25  2.0165E+003
 958.50  2.0525E+003
 958.75  2.0017E+003
 959.00  2.0182E+003
 959.25  2.0331E+003
 959.50  2.0064E+003
 959.75  2.0425E+003
 960.00  2.0708E+003
 960.25  2.0610E+003
 960.50  2.0786E+003
 960.75  2.0790E+003
 961.00  2.1488E+003
 961.25  2.2117E+003
 961.50  2.2096E+003
 961.75  2.1719E+003
 962.00  2.1842E+003
 962.25  2.2296E+003
 962.50  2.1887E+003
 962.75  2.0666E+003
 963.00  1.9433E+003
 963.25  1.9515E+003
 963.50  2.0320E+003
 963.75  2.2394E+003
 964.00  2.4442E+003
 964.25  2.5506E+003
 964.50  2.6132E+003
 964.75  2.5165E+003
 965.00  2.3698E+003
 965.25  2.3560E+003
 965.50  2.3837E+003
 965.75  2.3310E+003
 966.00  2.1628E+003
 966.25  1.9766E+003
 966.50  1.8843E+003
 966.75  1.8962E+003
 967.00  2.0110E+003
 967.25  2.0500E+003
 967.50  1.9320E+003
 967.75  1.8503E+003
 968.00  2.0364E+003
 968.25  2.2581E+003
 968.50  2.2961E+003
 968.75  2.2308E+003
 969.00  2.2628E+003
 969.25  2.3138E+003
 969.50  2.2393E+003
 969.75  2.0448E+003
 970.00  1.9338E+003
 970.25  1.9403E+003
 970.50  1.9517E+003
 970.75  2.0284E+003
 971.00  2.2064E+003
 971.25  2.3277E+003
 971.50  2.3253E+003
 971.75  2.2213E+003
 972.00  2.1674E+003
 972.25  2.1193E+003
 972.50  2.0599E+003
 972.75  2.0286E+003
 973.00  2.0169E+003
 973.25  1.9554E+003
 973.50  1.9791E+003
 973.75  2.0332E+003
 974.00  1.9600E+003
 974.25  1.9506E+003
 974.50  2.1254E+003
 974.75  2.1948E+003
 975.00  2.1648E+003
 975.25  2.2430E+003
 975.50  2.2973E+003
 975.75  2.3814E+003
 976.00  2.3777E+003
 976.25  2.5346E+003
 976.50  2.6368E+003
 976.75  2.4261E+003
 977.00  2.3076E+003
 977.25  2.1573E+003
 977.50  2.0927E+003
 977.75  2.1456E+003
 978.00  2.1715E+003
 978.25  2.1333E+003
 978.50  2.0566E+003
 978.75  2.0195E+003
 979.00  2.0178E+003
 979.25  2.0851E+003
 979.50  2.3280E+003
 979.75  2.5012E+003
 980.00  2.3981E+003
 980.25  2.1982E+003
 980.50  2.1191E+003
 980.75  1.9937E+003
 981.00  1.9353E+003
 981.25  1.9704E+003
 981.50  1.8839E+003
 981.75  1.8315E+003
 982.00  1.8126E+003
 982.25  1.7300E+003
 982.50  1.7468E+003
 982.75  1.8886E+003
 983.00  2.0473E+003
 983.25  2.1531E+003
 983.50  2.2300E+003
 983.75  2.2290E+003
 984.00  2.2653E+003
 984.25  2.3360E+003
 984.50  2.2431E+003
 984.75  2.1336E+003
 985.00  2.0748E+003
 985.25  1.9668E+003
 985.50  1.8821E+003
 985.75  1.8583E+003
 986.00  1.9549E+003
 986.25  2.1272E+003
 986.50  2.2219E+003
 986.75  2.1824E+003
 987.00  2.1924E+003
 987.25  2.1786E+003
 987.50  2.0857E+003
 987.75  1.9843E+003
 988.00  1.8729E+003
 988.25  1.8731E+003
 988.50  1.9487E+003
 988.75  1.9216E+003
 989.00  1.8963E+003
 989.25  1.8475E+003
 989.50  1.7573E+003
 989.75  1.7426E+003
 990.00  1.8216E+003
 990.25  1.9699E+003
 990.50  1.9707E+003
 990.75  1.8860E+003
 991.00  1.9221E+003
 991.25  2.0366E+003
 991.50  2.1667E+003
 991.75  2.1998E+003
 992.00  2.2918E+003
 992.25  2.3830E+003
 992.50  2.3292E+003
 992.75  2.2523E+003
 993.00  2.1219E+003
 993.25  2.0084E+003
 993.50  2.0617E+003
 993.75  2.0983E+003
 994.00  2.0025E+003
 994.25  2.0006E+003
 994.50  2.1520E+003
 994.75  2.2239E+003
 995.00  2.0692E+003
 995.25  1.9311E+003
 995.50  1.9107E+003
 995.75  1.9316E+003
 996.00  2.0022E+003
 996.25  2.0040E+003
 996.50  1.8899E+003
 996.75  1.8827E+003
 997.00  1.8630E+003
 997.25  1.7989E+003
 997.50  1.8302E+003
 997.75  2.0223E+003
 998.00  2.2090E+003
 998.25  2.2331E+003
 998.50  2.2448E+003
 998.75  2.2593E+003
 999.00  2.2435E+003
 999.25  2.1065E+003
 999.50  1.9380E+003
 999.75  1.8515E+003
1000.00  1.8154E+003
1000.25  1.8329E+003
1000.50  1.7431E+003
1000.75  1.6566E+003
1001.00  1.7382E+003
1001.25  1.9277E+003
1001.50  2.1312E+003
1001.75  2.1560E+003
1002.00  2.1115E+003
1002.25  2.1670E+003
1002.50  2.2478E+003
1002.75  2.2764E+003
1003.00  2.2783E+003
1003.25  2.2529E+003
1003.50  2.2675E+003
1003.75  2.1772E+003
1004.00  2.0697E+003
1004.25  2.1467E+003
1004.50  2.2274E+003
1004.75  2.3067E+003
1005.00  2.3616E+003
1005.25  2.3729E+003
1005.50  2.3864E+003
1005.75  2.3893E+003
1006.00  2.3660E+003
1006.25  2.2280E+003
1006.50  2.1483E+003
1006.75  2.1652E+003
1007.00  2.1301E+003
1007.25  2.0207E+003
1007.50  1.8509E+003
1007.75  1.8043E+003
