" File: Raman_Stuff\Libaries\Raman_Vial.LIB
" " SCOPE->   Wave:811.02nm  Pix:172  Val:2007.161 Time:3000ms  Avg:1  Sm:1  Sg:0  Tc:off  SNAP  Xt:3  Ch:1   1666.
793.16  1.3060E+003
793.26  1.2050E+003
793.37  1.1730E+003
793.47  1.1690E+003
793.57  1.2050E+003
793.68  1.2300E+003
793.78  1.3320E+003
793.89  1.2930E+003
793.99  1.2760E+003
794.09  1.3130E+003
794.20  1.2750E+003
794.30  1.3550E+003
794.40  1.4490E+003
794.51  1.5370E+003
794.61  1.5850E+003
794.71  1.5230E+003
794.82  1.3610E+003
794.92  1.3860E+003
795.03  1.4120E+003
795.13  1.3280E+003
795.23  1.2980E+003
795.34  1.2890E+003
795.44  1.3410E+003
795.54  1.4840E+003
795.65  1.4500E+003
795.75  1.3230E+003
795.86  1.2830E+003
795.96  1.2730E+003
796.06  1.3370E+003
796.17  1.3830E+003
796.27  1.4480E+003
796.37  1.5990E+003
796.48  1.5446E+003
796.58  1.5326E+003
796.69  1.5192E+003
796.79  1.4928E+003
796.89  1.4986E+003
797.00  1.5126E+003
797.10  1.5178E+003
797.20  1.4838E+003
797.31  1.4410E+003
797.41  1.3958E+003
797.51  1.3718E+003
797.62  1.3468E+003
797.72  1.3246E+003
797.83  1.2996E+003
797.93  1.2884E+003
798.03  1.2908E+003
798.14  1.3536E+003
798.24  1.4200E+003
798.34  1.4460E+003
798.45  1.4718E+003
798.55  1.5006E+003
798.66  1.5056E+003
798.76  1.5236E+003
798.86  1.5978E+003
798.97  1.6890E+003
799.07  1.7552E+003
799.17  1.7752E+003
799.28  1.7672E+003
799.38  1.7236E+003
799.49  1.6544E+003
799.59  1.5972E+003
799.69  1.5578E+003
799.80  1.5692E+003
799.90  1.5954E+003
800.01  1.6364E+003
800.11  1.7048E+003
800.21  1.7894E+003
800.32  1.8574E+003
800.42  1.9368E+003
800.52  1.9908E+003
800.63  1.9938E+003
800.73  1.9876E+003
800.84  2.0016E+003
800.94  2.0136E+003
801.04  2.0198E+003
801.15  2.0332E+003
801.25  2.0602E+003
801.35  2.0514E+003
801.46  2.0146E+003
801.56  1.9900E+003
801.67  1.9652E+003
801.77  1.9072E+003
801.87  1.8280E+003
801.98  1.7544E+003
802.08  1.6988E+003
802.18  1.6854E+003
802.29  1.7168E+003
802.39  1.7602E+003
802.50  1.7874E+003
802.60  1.8242E+003
802.70  1.8316E+003
802.81  1.8110E+003
802.91  1.8018E+003
803.02  1.8304E+003
803.12  1.8398E+003
803.22  1.8608E+003
803.33  1.9060E+003
803.43  1.9392E+003
803.53  1.9552E+003
803.64  1.9734E+003
803.74  1.9688E+003
803.85  1.9244E+003
803.95  1.8904E+003
804.05  1.8756E+003
804.16  1.8542E+003
804.26  1.8438E+003
804.37  1.8574E+003
804.47  1.8814E+003
804.57  1.8846E+003
804.68  1.8992E+003
804.78  1.9088E+003
804.88  1.8880E+003
804.99  1.8564E+003
805.09  1.8558E+003
805.20  1.8330E+003
805.30  1.8034E+003
805.40  1.7900E+003
805.51  1.7862E+003
805.61  1.7628E+003
805.72  1.7556E+003
805.82  1.7628E+003
805.92  1.7456E+003
806.03  1.7010E+003
806.13  1.6708E+003
806.24  1.6812E+003
806.34  1.7136E+003
806.44  1.7936E+003
806.55  1.8670E+003
806.65  1.8922E+003
806.75  1.8696E+003
806.86  1.8288E+003
806.96  1.7844E+003
807.07  1.7576E+003
807.17  1.7562E+003
807.27  1.7768E+003
807.38  1.7862E+003
807.48  1.7790E+003
807.59  1.7798E+003
807.69  1.7784E+003
807.79  1.7540E+003
807.90  1.7528E+003
808.00  1.7822E+003
808.11  1.8436E+003
808.21  1.9116E+003
808.31  1.9674E+003
808.42  2.0070E+003
808.52  2.0354E+003
808.63  2.0210E+003
808.73  2.0012E+003
808.83  1.9712E+003
808.94  1.9328E+003
809.04  1.8984E+003
809.15  1.8848E+003
809.25  1.9032E+003
809.35  1.9580E+003
809.46  2.0020E+003
809.56  2.0322E+003
809.67  2.0362E+003
809.77  1.9842E+003
809.87  1.9346E+003
809.98  1.9078E+003
810.08  1.8820E+003
810.18  1.8568E+003
810.29  1.8558E+003
810.39  1.8722E+003
810.50  1.8946E+003
810.60  1.9062E+003
810.70  1.9310E+003
810.81  1.9704E+003
810.91  1.9960E+003
811.02  2.0072E+003
811.12  2.0102E+003
811.22  1.9998E+003
811.33  1.9884E+003
811.43  2.0136E+003
811.54  2.0640E+003
811.64  2.1110E+003
811.74  2.1272E+003
811.85  2.1150E+003
811.95  2.0686E+003
812.06  2.0004E+003
812.16  1.9374E+003
812.26  1.9156E+003
812.37  1.9100E+003
812.47  1.8928E+003
812.58  1.8708E+003
812.68  1.8738E+003
812.78  1.8826E+003
812.89  1.9094E+003
812.99  1.9360E+003
813.10  1.9622E+003
813.20  1.9728E+003
813.30  1.9746E+003
813.41  1.9550E+003
813.51  1.9264E+003
813.62  1.9152E+003
813.72  1.9058E+003
813.82  1.8868E+003
813.93  1.8664E+003
814.03  1.8284E+003
814.14  1.7670E+003
814.24  1.7090E+003
814.35  1.6958E+003
814.45  1.7372E+003
814.55  1.8196E+003
814.66  1.9022E+003
814.76  1.9426E+003
814.87  1.9188E+003
814.97  1.8430E+003
815.07  1.7514E+003
815.18  1.6576E+003
815.28  1.6052E+003
815.39  1.6130E+003
815.49  1.6214E+003
815.59  1.6230E+003
815.70  1.6698E+003
815.80  1.7290E+003
815.91  1.7552E+003
816.01  1.7806E+003
816.11  1.8086E+003
816.22  1.8072E+003
816.32  1.8206E+003
816.43  1.8452E+003
816.53  1.8936E+003
816.63  1.9366E+003
816.74  1.9356E+003
816.84  1.9008E+003
816.95  1.8684E+003
817.05  1.8050E+003
817.16  1.7474E+003
817.26  1.7404E+003
817.36  1.7558E+003
817.47  1.7534E+003
817.57  1.7556E+003
817.68  1.7544E+003
817.78  1.7518E+003
817.88  1.7074E+003
817.99  1.6726E+003
818.09  1.6422E+003
818.20  1.6378E+003
818.30  1.6302E+003
818.40  1.6400E+003
818.51  1.6378E+003
818.61  1.6508E+003
818.72  1.6676E+003
818.82  1.6720E+003
818.92  1.6484E+003
819.03  1.6306E+003
819.13  1.6160E+003
819.24  1.6034E+003
819.34  1.6110E+003
819.45  1.6462E+003
819.55  1.6656E+003
819.65  1.6572E+003
819.76  1.6210E+003
819.86  1.5852E+003
819.97  1.5394E+003
820.07  1.5420E+003
820.17  1.5864E+003
820.28  1.6120E+003
820.38  1.6190E+003
820.49  1.6296E+003
820.59  1.5918E+003
820.70  1.5422E+003
820.80  1.5344E+003
820.90  1.5440E+003
821.01  1.5692E+003
821.11  1.6298E+003
821.22  1.6874E+003
821.32  1.7486E+003
821.42  1.7908E+003
821.53  1.8088E+003
821.63  1.7990E+003
821.74  1.7842E+003
821.84  1.7396E+003
821.95  1.6950E+003
822.05  1.6480E+003
822.15  1.6326E+003
822.26  1.6186E+003
822.36  1.6026E+003
822.47  1.5904E+003
822.57  1.5934E+003
822.67  1.5570E+003
822.78  1.5078E+003
822.88  1.4980E+003
822.99  1.4650E+003
823.09  1.4288E+003
823.20  1.4292E+003
823.30  1.4532E+003
823.40  1.4596E+003
823.51  1.4902E+003
823.61  1.5354E+003
823.72  1.5830E+003
823.82  1.6274E+003
823.92  1.6600E+003
824.03  1.6730E+003
824.13  1.6698E+003
824.24  1.6404E+003
824.34  1.5834E+003
824.45  1.5288E+003
824.55  1.5012E+003
824.65  1.4900E+003
824.76  1.4980E+003
824.86  1.5240E+003
824.97  1.5558E+003
825.07  1.5996E+003
825.18  1.6524E+003
825.28  1.6886E+003
825.38  1.6976E+003
825.49  1.6782E+003
825.59  1.6090E+003
825.70  1.5492E+003
825.80  1.5192E+003
825.91  1.5202E+003
826.01  1.5760E+003
826.11  1.6816E+003
826.22  1.7446E+003
826.32  1.7650E+003
826.43  1.7470E+003
826.53  1.6666E+003
826.63  1.5730E+003
826.74  1.5084E+003
826.84  1.5172E+003
826.95  1.5638E+003
827.05  1.6238E+003
827.16  1.6574E+003
827.26  1.6676E+003
827.36  1.6256E+003
827.47  1.5784E+003
827.57  1.5462E+003
827.68  1.5260E+003
827.78  1.5202E+003
827.89  1.5178E+003
827.99  1.5260E+003
828.09  1.5580E+003
828.20  1.5868E+003
828.30  1.6022E+003
828.41  1.6108E+003
828.51  1.6082E+003
828.62  1.6160E+003
828.72  1.6518E+003
828.82  1.6816E+003
828.93  1.6950E+003
829.03  1.6790E+003
829.14  1.6186E+003
829.24  1.5406E+003
829.35  1.4918E+003
829.45  1.4624E+003
829.55  1.4746E+003
829.66  1.4994E+003
829.76  1.5210E+003
829.87  1.5498E+003
829.97  1.6022E+003
830.08  1.6468E+003
830.18  1.6916E+003
830.28  1.7346E+003
830.39  1.7812E+003
830.49  1.8262E+003
830.60  1.8478E+003
830.70  1.8498E+003
830.81  1.8526E+003
830.91  1.8318E+003
831.02  1.7656E+003
831.12  1.7008E+003
831.22  1.6390E+003
831.33  1.5646E+003
831.43  1.4834E+003
831.54  1.4526E+003
831.64  1.4506E+003
831.75  1.4604E+003
831.85  1.5024E+003
831.95  1.5552E+003
832.06  1.5560E+003
832.16  1.5606E+003
832.27  1.5778E+003
832.37  1.5782E+003
832.48  1.5920E+003
832.58  1.6358E+003
832.68  1.6492E+003
832.79  1.6268E+003
832.89  1.5964E+003
833.00  1.5352E+003
833.10  1.4714E+003
833.21  1.4512E+003
833.31  1.4334E+003
833.42  1.4100E+003
833.52  1.4450E+003
833.62  1.5178E+003
833.73  1.5676E+003
833.83  1.6270E+003
833.94  1.6788E+003
834.04  1.6744E+003
834.15  1.6124E+003
834.25  1.5432E+003
834.35  1.5218E+003
834.46  1.5408E+003
834.56  1.5886E+003
834.67  1.6672E+003
834.77  1.7206E+003
834.88  1.7364E+003
834.98  1.7754E+003
835.09  1.7936E+003
835.19  1.7704E+003
835.29  1.7322E+003
835.40  1.6516E+003
835.50  1.5122E+003
835.61  1.3888E+003
835.71  1.3290E+003
835.82  1.3198E+003
835.92  1.3808E+003
836.02  1.4624E+003
836.13  1.5356E+003
836.23  1.5710E+003
836.34  1.6002E+003
836.44  1.6028E+003
836.55  1.6202E+003
836.65  1.6530E+003
836.76  1.6884E+003
836.86  1.7146E+003
836.96  1.7390E+003
837.07  1.7496E+003
837.17  1.7312E+003
837.28  1.6974E+003
837.38  1.6654E+003
837.49  1.6458E+003
837.59  1.6186E+003
837.70  1.5870E+003
837.80  1.5634E+003
837.90  1.5448E+003
838.01  1.5110E+003
838.11  1.4718E+003
838.22  1.4430E+003
838.32  1.4246E+003
838.43  1.4182E+003
838.53  1.4174E+003
838.64  1.4628E+003
838.74  1.5418E+003
838.84  1.6030E+003
838.95  1.6246E+003
839.05  1.6410E+003
839.16  1.6518E+003
839.26  1.6386E+003
839.37  1.6490E+003
839.47  1.6818E+003
839.58  1.7064E+003
839.68  1.7196E+003
839.78  1.7312E+003
839.89  1.7242E+003
839.99  1.7212E+003
840.10  1.7152E+003
840.20  1.6884E+003
840.31  1.6566E+003
840.41  1.6092E+003
840.52  1.5632E+003
840.62  1.5510E+003
840.72  1.5260E+003
840.83  1.5114E+003
840.93  1.5636E+003
841.04  1.6396E+003
841.14  1.6750E+003
841.25  1.7138E+003
841.35  1.7538E+003
841.46  1.7578E+003
841.56  1.7386E+003
841.66  1.7152E+003
841.77  1.6940E+003
841.87  1.6760E+003
841.98  1.6554E+003
842.08  1.6282E+003
842.19  1.6046E+003
842.29  1.5934E+003
842.40  1.5708E+003
842.50  1.5404E+003
842.61  1.5008E+003
842.71  1.4932E+003
842.81  1.4926E+003
842.92  1.5058E+003
843.02  1.5364E+003
843.13  1.5494E+003
843.23  1.5022E+003
843.34  1.4388E+003
843.44  1.3532E+003
843.55  1.2716E+003
843.65  1.2370E+003
843.76  1.2668E+003
843.86  1.3096E+003
843.96  1.3538E+003
844.07  1.3878E+003
844.17  1.4052E+003
844.28  1.4352E+003
844.38  1.4822E+003
844.49  1.5614E+003
844.59  1.6338E+003
844.70  1.7082E+003
844.80  1.7610E+003
844.90  1.7756E+003
845.01  1.7454E+003
845.11  1.7196E+003
845.22  1.6916E+003
845.32  1.6856E+003
845.43  1.7050E+003
845.53  1.7200E+003
845.64  1.6972E+003
845.74  1.6672E+003
845.85  1.6130E+003
845.95  1.5754E+003
846.05  1.5680E+003
846.16  1.5860E+003
846.26  1.6246E+003
846.37  1.6862E+003
846.47  1.7206E+003
846.58  1.7278E+003
846.68  1.7176E+003
846.79  1.6766E+003
846.89  1.5780E+003
847.00  1.4926E+003
847.10  1.4502E+003
847.21  1.4386E+003
847.31  1.4480E+003
847.41  1.4838E+003
847.52  1.5286E+003
847.62  1.5578E+003
847.73  1.5798E+003
847.83  1.5806E+003
847.94  1.5736E+003
848.04  1.5754E+003
848.15  1.5906E+003
848.25  1.5810E+003
848.36  1.5728E+003
848.46  1.5742E+003
848.56  1.5596E+003
848.67  1.5304E+003
848.77  1.5056E+003
848.88  1.4846E+003
848.98  1.4950E+003
849.09  1.5014E+003
849.19  1.4864E+003
849.30  1.4962E+003
849.40  1.5624E+003
849.51  1.6162E+003
849.61  1.6568E+003
849.72  1.7106E+003
849.82  1.7520E+003
849.92  1.7270E+003
850.03  1.6868E+003
850.13  1.6540E+003
850.24  1.6276E+003
850.34  1.6432E+003
850.45  1.6968E+003
850.55  1.7140E+003
850.66  1.6872E+003
850.76  1.6578E+003
850.87  1.6016E+003
850.97  1.5294E+003
851.08  1.4944E+003
851.18  1.4930E+003
851.28  1.5008E+003
851.39  1.5110E+003
851.49  1.5378E+003
851.60  1.5588E+003
851.70  1.5570E+003
851.81  1.5584E+003
851.91  1.5590E+003
852.02  1.5364E+003
852.12  1.5098E+003
852.23  1.5212E+003
852.33  1.5524E+003
852.44  1.5766E+003
852.54  1.5886E+003
852.64  1.6240E+003
852.75  1.6636E+003
852.85  1.6610E+003
852.96  1.6410E+003
853.06  1.6196E+003
853.17  1.5790E+003
853.27  1.5372E+003
853.38  1.5282E+003
853.48  1.5324E+003
853.59  1.5604E+003
853.69  1.6060E+003
853.80  1.6472E+003
853.90  1.6448E+003
854.01  1.6332E+003
854.11  1.6194E+003
854.21  1.6038E+003
854.32  1.5928E+003
854.42  1.5904E+003
854.53  1.5688E+003
854.63  1.5422E+003
854.74  1.5118E+003
854.84  1.4580E+003
854.95  1.4046E+003
855.05  1.4054E+003
855.16  1.4192E+003
855.26  1.4248E+003
855.37  1.4246E+003
855.47  1.4264E+003
855.58  1.4028E+003
855.68  1.3882E+003
855.79  1.4018E+003
855.89  1.4596E+003
855.99  1.5434E+003
856.10  1.6390E+003
856.20  1.7052E+003
856.31  1.7248E+003
856.41  1.6966E+003
856.52  1.6438E+003
856.62  1.5802E+003
856.73  1.5366E+003
856.83  1.5382E+003
856.94  1.5462E+003
857.04  1.5118E+003
857.15  1.4718E+003
857.25  1.4352E+003
857.36  1.4000E+003
857.46  1.3910E+003
857.57  1.4230E+003
857.67  1.4636E+003
857.77  1.5052E+003
857.88  1.5134E+003
857.98  1.4910E+003
858.09  1.4824E+003
858.19  1.5014E+003
858.30  1.4980E+003
858.40  1.4794E+003
858.51  1.4830E+003
858.61  1.4990E+003
858.72  1.5232E+003
858.82  1.5794E+003
858.93  1.6556E+003
859.03  1.6998E+003
859.14  1.7076E+003
859.24  1.6738E+003
859.35  1.6242E+003
859.45  1.6058E+003
859.56  1.6304E+003
859.66  1.6740E+003
859.76  1.7254E+003
859.87  1.7732E+003
859.97  1.7898E+003
860.08  1.7946E+003
860.18  1.7706E+003
860.29  1.7400E+003
860.39  1.7102E+003
860.50  1.6472E+003
860.60  1.5604E+003
860.71  1.5016E+003
860.81  1.4580E+003
860.92  1.4160E+003
861.02  1.4190E+003
861.13  1.4564E+003
861.23  1.5156E+003
861.34  1.6072E+003
861.44  1.7060E+003
861.55  1.7934E+003
861.65  1.8516E+003
861.76  1.8780E+003
861.86  1.8722E+003
861.96  1.8526E+003
862.07  1.8360E+003
862.17  1.8332E+003
862.28  1.8626E+003
862.38  1.9024E+003
862.49  1.9058E+003
862.59  1.8588E+003
862.70  1.7862E+003
862.80  1.7126E+003
862.91  1.6372E+003
863.01  1.5956E+003
863.12  1.6150E+003
863.22  1.6640E+003
863.33  1.6894E+003
863.43  1.6728E+003
863.54  1.6512E+003
863.64  1.5990E+003
863.75  1.5542E+003
863.85  1.5158E+003
863.96  1.5070E+003
864.06  1.5106E+003
864.17  1.5306E+003
864.27  1.5546E+003
864.37  1.5830E+003
864.48  1.5942E+003
864.58  1.6080E+003
864.69  1.6286E+003
864.79  1.6246E+003
864.90  1.6214E+003
865.00  1.6484E+003
865.11  1.6668E+003
865.21  1.6688E+003
865.32  1.6862E+003
865.42  1.7162E+003
865.53  1.7222E+003
865.63  1.7136E+003
865.74  1.7190E+003
865.84  1.7254E+003
865.95  1.7070E+003
866.05  1.6998E+003
866.16  1.7082E+003
866.26  1.6872E+003
866.37  1.6448E+003
866.47  1.5946E+003
866.58  1.5492E+003
866.68  1.5052E+003
866.79  1.4768E+003
866.89  1.4756E+003
867.00  1.5110E+003
867.10  1.5654E+003
867.21  1.6150E+003
867.31  1.6792E+003
867.41  1.7448E+003
867.52  1.7578E+003
867.62  1.7150E+003
867.73  1.6512E+003
867.83  1.5926E+003
867.94  1.5282E+003
868.04  1.4766E+003
868.15  1.4634E+003
868.25  1.4924E+003
868.36  1.5202E+003
868.46  1.5182E+003
868.57  1.5260E+003
868.67  1.5410E+003
868.78  1.5540E+003
868.88  1.5634E+003
868.99  1.6070E+003
869.09  1.6502E+003
869.20  1.6854E+003
869.30  1.7072E+003
869.41  1.7090E+003
869.51  1.6772E+003
869.62  1.6522E+003
869.72  1.6558E+003
869.83  1.6590E+003
869.93  1.6478E+003
870.04  1.6380E+003
870.14  1.6304E+003
870.25  1.5870E+003
870.35  1.5272E+003
870.46  1.4892E+003
870.56  1.4710E+003
870.67  1.4706E+003
870.77  1.5210E+003
870.88  1.5964E+003
870.98  1.6912E+003
871.09  1.7866E+003
871.19  1.8532E+003
871.30  1.8242E+003
871.40  1.7608E+003
871.50  1.6916E+003
871.61  1.6250E+003
871.71  1.5636E+003
871.82  1.5110E+003
871.92  1.4894E+003
872.03  1.4772E+003
872.13  1.4692E+003
872.24  1.4710E+003
872.34  1.5112E+003
872.45  1.5434E+003
872.55  1.5636E+003
872.66  1.5406E+003
872.76  1.5030E+003
872.87  1.4608E+003
872.97  1.4240E+003
873.08  1.4218E+003
873.18  1.4714E+003
873.29  1.5262E+003
873.39  1.5874E+003
873.50  1.6464E+003
873.60  1.6806E+003
873.71  1.6856E+003
873.81  1.6770E+003
873.92  1.6658E+003
874.02  1.6514E+003
874.13  1.6330E+003
874.23  1.6130E+003
874.34  1.6180E+003
874.44  1.6344E+003
874.55  1.6570E+003
874.65  1.6842E+003
874.76  1.7522E+003
874.86  1.8082E+003
874.97  1.8310E+003
875.07  1.8734E+003
875.18  1.9224E+003
875.28  1.9220E+003
875.39  1.8870E+003
875.49  1.8588E+003
875.60  1.8298E+003
875.70  1.8256E+003
875.81  1.8658E+003
875.91  1.9456E+003
876.02  2.0358E+003
876.12  2.1024E+003
876.23  2.1298E+003
876.33  2.1182E+003
876.44  2.0894E+003
876.54  2.0572E+003
876.65  2.0260E+003
876.75  1.9930E+003
876.86  1.9546E+003
876.96  1.9580E+003
877.07  1.9796E+003
877.17  2.0022E+003
877.28  2.0078E+003
877.38  2.0196E+003
877.49  1.9810E+003
877.59  1.9228E+003
877.70  1.8648E+003
877.80  1.8304E+003
877.91  1.8032E+003
878.01  1.7568E+003
878.12  1.7046E+003
878.22  1.6698E+003
878.33  1.6432E+003
878.43  1.6456E+003
878.54  1.6864E+003
878.64  1.7414E+003
878.75  1.7840E+003
878.85  1.8154E+003
878.96  1.8328E+003
879.06  1.8706E+003
879.17  1.9262E+003
879.27  1.9942E+003
879.38  2.0498E+003
879.48  2.0824E+003
879.59  2.0930E+003
879.69  2.0812E+003
879.80  2.0404E+003
879.90  1.9870E+003
880.01  1.9210E+003
880.11  1.8674E+003
880.22  1.8246E+003
880.32  1.7668E+003
880.43  1.7458E+003
880.53  1.7728E+003
880.64  1.7952E+003
880.74  1.8062E+003
880.85  1.8698E+003
880.95  1.9084E+003
881.06  1.9024E+003
881.16  1.8830E+003
881.27  1.8574E+003
881.37  1.8060E+003
881.48  1.7786E+003
881.58  1.7932E+003
881.69  1.8440E+003
881.79  1.9196E+003
881.90  2.0010E+003
882.00  2.0670E+003
882.11  2.0946E+003
882.21  2.1016E+003
882.32  2.1048E+003
882.42  2.0944E+003
882.53  2.0694E+003
882.63  2.0444E+003
882.74  1.9748E+003
882.84  1.8956E+003
882.95  1.8408E+003
883.05  1.7916E+003
883.16  1.7652E+003
883.26  1.8096E+003
883.37  1.8766E+003
883.47  1.9350E+003
883.58  2.0078E+003
883.68  2.0670E+003
883.79  2.0860E+003
883.89  2.0888E+003
884.00  2.0766E+003
884.10  2.0356E+003
884.21  1.9980E+003
884.31  1.9602E+003
884.42  1.9010E+003
884.52  1.8420E+003
884.63  1.8132E+003
884.73  1.7724E+003
884.84  1.7266E+003
884.94  1.6784E+003
885.05  1.6522E+003
885.15  1.6456E+003
885.26  1.6688E+003
885.36  1.6920E+003
885.47  1.7060E+003
885.57  1.7196E+003
885.68  1.7372E+003
885.78  1.7634E+003
885.89  1.8174E+003
885.99  1.8726E+003
886.10  1.8930E+003
886.20  1.8778E+003
886.31  1.8410E+003
886.41  1.7974E+003
886.52  1.7554E+003
886.62  1.7358E+003
886.73  1.7308E+003
886.83  1.7374E+003
886.94  1.7428E+003
887.04  1.7746E+003
887.15  1.8200E+003
887.25  1.8488E+003
887.36  1.8442E+003
887.46  1.8294E+003
887.57  1.7802E+003
887.67  1.7098E+003
887.78  1.6834E+003
887.88  1.7162E+003
887.99  1.7776E+003
888.09  1.8736E+003
888.20  1.9626E+003
888.30  1.9970E+003
888.41  1.9674E+003
888.51  1.9060E+003
888.62  1.8224E+003
888.72  1.7430E+003
888.83  1.7202E+003
888.93  1.7506E+003
889.04  1.7522E+003
889.15  1.7432E+003
889.25  1.7548E+003
889.36  1.7522E+003
889.46  1.7422E+003
889.57  1.7598E+003
889.67  1.7920E+003
889.78  1.8046E+003
889.88  1.8040E+003
889.99  1.7966E+003
890.09  1.7974E+003
890.20  1.8012E+003
890.30  1.8190E+003
890.41  1.8248E+003
890.51  1.8428E+003
890.62  1.8660E+003
890.72  1.8660E+003
890.83  1.8528E+003
890.93  1.8580E+003
891.04  1.8380E+003
891.14  1.8022E+003
891.25  1.8048E+003
891.35  1.8208E+003
891.46  1.7992E+003
891.56  1.7712E+003
891.67  1.7338E+003
891.77  1.7002E+003
891.88  1.6756E+003
891.98  1.6708E+003
892.09  1.6810E+003
892.19  1.7114E+003
892.30  1.7196E+003
892.40  1.7056E+003
892.51  1.6838E+003
892.61  1.6696E+003
892.72  1.6826E+003
892.82  1.7122E+003
892.93  1.7132E+003
893.03  1.7118E+003
893.14  1.7196E+003
893.24  1.7348E+003
893.35  1.7762E+003
893.46  1.8442E+003
893.56  1.9190E+003
893.67  1.9648E+003
893.77  1.9690E+003
893.88  1.9266E+003
893.98  1.8582E+003
894.09  1.8034E+003
894.19  1.7786E+003
894.30  1.7674E+003
894.40  1.7720E+003
894.51  1.8278E+003
894.61  1.8562E+003
894.72  1.8660E+003
894.82  1.8678E+003
894.93  1.8552E+003
895.03  1.8530E+003
895.14  1.8792E+003
895.24  1.8796E+003
895.35  1.8670E+003
895.45  1.8540E+003
895.56  1.7960E+003
895.66  1.7204E+003
895.77  1.6862E+003
895.87  1.6914E+003
895.98  1.6952E+003
896.08  1.7096E+003
896.19  1.7512E+003
896.29  1.7990E+003
896.40  1.8238E+003
896.50  1.8492E+003
896.61  1.8782E+003
896.72  1.8642E+003
896.82  1.8292E+003
896.93  1.8238E+003
897.03  1.8468E+003
897.14  1.8610E+003
897.24  1.8896E+003
897.35  1.9198E+003
897.45  1.9356E+003
897.56  1.9374E+003
897.66  1.9130E+003
897.77  1.8962E+003
897.87  1.8812E+003
897.98  1.8446E+003
898.08  1.8042E+003
898.19  1.7974E+003
898.29  1.7800E+003
898.40  1.7418E+003
898.50  1.7210E+003
898.61  1.6970E+003
898.71  1.6660E+003
898.82  1.6508E+003
898.92  1.6644E+003
899.03  1.6572E+003
899.13  1.6772E+003
899.24  1.7366E+003
899.34  1.8186E+003
899.45  1.8982E+003
899.56  1.9702E+003
899.66  2.0084E+003
899.77  2.0038E+003
899.87  1.9262E+003
899.98  1.8170E+003
900.08  1.7344E+003
900.19  1.6786E+003
900.29  1.6198E+003
900.40  1.5790E+003
900.50  1.5672E+003
900.61  1.5618E+003
900.71  1.5502E+003
900.82  1.5926E+003
900.92  1.7050E+003
901.03  1.8290E+003
901.13  1.9372E+003
901.24  2.0218E+003
901.34  2.0050E+003
901.45  1.8952E+003
901.55  1.7944E+003
901.66  1.7232E+003
901.76  1.6674E+003
901.87  1.6666E+003
901.98  1.7022E+003
902.08  1.7152E+003
902.19  1.6940E+003
902.29  1.6552E+003
902.40  1.6294E+003
902.50  1.6248E+003
902.61  1.6278E+003
902.71  1.6346E+003
902.82  1.6686E+003
902.92  1.6848E+003
903.03  1.6948E+003
903.13  1.6792E+003
903.24  1.6390E+003
903.34  1.6012E+003
903.45  1.6012E+003
903.55  1.6042E+003
903.66  1.6160E+003
903.76  1.6556E+003
903.87  1.6910E+003
903.97  1.6912E+003
904.08  1.6716E+003
904.19  1.6610E+003
904.29  1.6530E+003
904.40  1.6242E+003
904.50  1.6186E+003
904.61  1.6378E+003
904.71  1.6378E+003
904.82  1.6180E+003
904.92  1.6320E+003
905.03  1.6630E+003
905.13  1.6690E+003
905.24  1.6606E+003
905.34  1.6800E+003
905.45  1.6726E+003
905.55  1.6266E+003
905.66  1.5982E+003
905.76  1.6042E+003
905.87  1.6052E+003
905.97  1.6078E+003
906.08  1.6098E+003
906.19  1.6178E+003
906.29  1.6428E+003
906.40  1.6728E+003
906.50  1.7144E+003
906.61  1.7576E+003
906.71  1.7918E+003
906.82  1.8080E+003
906.92  1.8174E+003
907.03  1.8240E+003
907.13  1.8284E+003
907.24  1.8050E+003
907.34  1.7636E+003
907.45  1.6888E+003
907.55  1.6284E+003
907.66  1.5792E+003
907.76  1.5656E+003
907.87  1.5788E+003
907.97  1.6190E+003
908.08  1.6458E+003
908.19  1.6674E+003
908.29  1.6928E+003
908.40  1.6996E+003
908.50  1.7202E+003
908.61  1.7308E+003
908.71  1.7418E+003
908.82  1.7650E+003
908.92  1.8118E+003
909.03  1.8332E+003
909.13  1.8504E+003
909.24  1.8964E+003
909.34  1.9424E+003
909.45  1.9674E+003
909.55  2.0010E+003
909.66  2.0158E+003
909.76  1.9642E+003
909.87  1.8878E+003
909.98  1.8208E+003
910.08  1.7644E+003
910.19  1.7426E+003
910.29  1.7650E+003
910.40  1.7828E+003
910.50  1.7740E+003
910.61  1.7428E+003
910.71  1.6924E+003
910.82  1.6242E+003
910.92  1.5638E+003
911.03  1.5304E+003
911.13  1.5296E+003
911.24  1.5448E+003
911.34  1.5662E+003
911.45  1.5890E+003
911.55  1.6176E+003
911.66  1.6466E+003
911.77  1.6738E+003
911.87  1.6982E+003
911.98  1.7120E+003
912.08  1.7172E+003
912.19  1.6986E+003
912.29  1.6724E+003
912.40  1.6856E+003
912.50  1.7152E+003
912.61  1.7104E+003
912.71  1.6900E+003
912.82  1.6750E+003
912.92  1.6650E+003
913.03  1.6622E+003
913.13  1.6712E+003
913.24  1.6706E+003
913.35  1.6620E+003
913.45  1.6354E+003
913.56  1.5996E+003
913.66  1.5980E+003
913.77  1.6282E+003
913.87  1.6574E+003
913.98  1.6698E+003
914.08  1.6976E+003
914.19  1.7126E+003
914.29  1.7126E+003
914.40  1.6848E+003
914.50  1.6398E+003
914.61  1.5862E+003
914.71  1.5580E+003
914.82  1.5278E+003
914.93  1.5044E+003
915.03  1.5044E+003
915.14  1.5106E+003
915.24  1.5024E+003
915.35  1.5116E+003
915.45  1.5490E+003
915.56  1.5690E+003
915.66  1.5802E+003
915.77  1.6202E+003
915.87  1.6728E+003
915.98  1.7186E+003
916.08  1.7576E+003
916.19  1.7866E+003
916.29  1.7792E+003
916.40  1.7424E+003
916.51  1.6892E+003
916.61  1.6566E+003
916.72  1.6190E+003
916.82  1.5712E+003
916.93  1.5566E+003
917.03  1.5722E+003
917.14  1.5794E+003
917.24  1.5830E+003
917.35  1.5884E+003
917.45  1.5552E+003
917.56  1.5008E+003
917.66  1.4586E+003
917.77  1.4608E+003
917.88  1.4678E+003
917.98  1.4856E+003
918.09  1.5292E+003
918.19  1.5532E+003
918.30  1.5192E+003
918.40  1.4740E+003
918.51  1.4454E+003
918.61  1.4348E+003
918.72  1.4544E+003
918.82  1.4984E+003
918.93  1.5472E+003
919.03  1.5926E+003
919.14  1.6066E+003
919.24  1.5992E+003
919.35  1.5838E+003
919.46  1.5556E+003
919.56  1.5174E+003
919.67  1.4780E+003
919.77  1.4114E+003
919.88  1.3216E+003
919.98  1.2656E+003
920.09  1.2538E+003
920.19  1.2648E+003
920.30  1.3090E+003
920.40  1.3914E+003
920.51  1.4656E+003
920.61  1.5326E+003
920.72  1.5910E+003
920.83  1.6552E+003
920.93  1.7252E+003
921.04  1.7860E+003
921.14  1.7924E+003
921.25  1.7688E+003
921.35  1.7444E+003
921.46  1.7038E+003
921.56  1.6536E+003
921.67  1.6340E+003
921.77  1.6432E+003
921.88  1.6548E+003
921.98  1.6610E+003
922.09  1.6566E+003
922.20  1.6620E+003
922.30  1.6844E+003
922.41  1.7230E+003
922.51  1.7644E+003
922.62  1.8212E+003
922.72  1.8604E+003
922.83  1.8680E+003
922.93  1.8624E+003
923.04  1.8354E+003
923.14  1.7648E+003
923.25  1.6582E+003
923.36  1.5628E+003
923.46  1.4564E+003
923.57  1.3764E+003
923.67  1.3532E+003
923.78  1.3768E+003
923.88  1.3984E+003
923.99  1.4410E+003
924.09  1.4722E+003
924.20  1.4850E+003
924.30  1.5214E+003
924.41  1.5734E+003
924.51  1.5994E+003
924.62  1.6536E+003
924.73  1.6862E+003
924.83  1.6578E+003
924.94  1.5892E+003
925.04  1.5462E+003
925.15  1.5010E+003
925.25  1.4514E+003
925.36  1.4124E+003
925.46  1.4106E+003
925.57  1.3952E+003
925.67  1.3464E+003
925.78  1.3316E+003
925.88  1.3544E+003
925.99  1.3906E+003
926.10  1.4216E+003
926.20  1.4436E+003
926.31  1.4596E+003
926.41  1.4760E+003
926.52  1.4892E+003
926.62  1.5092E+003
926.73  1.5614E+003
926.83  1.6388E+003
926.94  1.6946E+003
927.04  1.7316E+003
927.15  1.7380E+003
927.26  1.7350E+003
927.36  1.7352E+003
927.47  1.7688E+003
927.57  1.7880E+003
927.68  1.8230E+003
927.78  1.8494E+003
927.89  1.8488E+003
927.99  1.7914E+003
928.10  1.7174E+003
928.20  1.6340E+003
928.31  1.5622E+003
928.42  1.4862E+003
928.52  1.4394E+003
928.63  1.4170E+003
928.73  1.4358E+003
928.84  1.4768E+003
928.94  1.5396E+003
929.05  1.5852E+003
929.15  1.6070E+003
929.26  1.6206E+003
929.36  1.6110E+003
929.47  1.6064E+003
929.58  1.6100E+003
929.68  1.6168E+003
929.79  1.5810E+003
929.89  1.5378E+003
930.00  1.4674E+003
930.10  1.4134E+003
930.21  1.4112E+003
930.31  1.4540E+003
930.42  1.5138E+003
930.52  1.5838E+003
930.63  1.6294E+003
930.74  1.6724E+003
930.84  1.7126E+003
930.95  1.7406E+003
931.05  1.7290E+003
931.16  1.7128E+003
931.26  1.6666E+003
931.37  1.6142E+003
931.47  1.5712E+003
931.58  1.5520E+003
931.68  1.5244E+003
931.79  1.5000E+003
931.90  1.4466E+003
932.00  1.3678E+003
932.11  1.2970E+003
932.21  1.2412E+003
932.32  1.2026E+003
932.42  1.2010E+003
932.53  1.2144E+003
932.63  1.2484E+003
932.74  1.3036E+003
932.84  1.3338E+003
932.95  1.3512E+003
933.06  1.3616E+003
933.16  1.3380E+003
933.27  1.2880E+003
933.37  1.2474E+003
933.48  1.2130E+003
933.58  1.2098E+003
933.69  1.2306E+003
933.79  1.2928E+003
933.90  1.3768E+003
934.00  1.4668E+003
934.11  1.5862E+003
934.22  1.7198E+003
934.32  1.8384E+003
934.43  1.9326E+003
934.53  2.0020E+003
934.64  1.9834E+003
934.74  1.8790E+003
934.85  1.7370E+003
934.95  1.6024E+003
935.06  1.4804E+003
935.17  1.4262E+003
935.27  1.4708E+003
935.38  1.5614E+003
935.48  1.6180E+003
935.59  1.6470E+003
935.69  1.6390E+003
935.80  1.5886E+003
935.90  1.5002E+003
936.01  1.4576E+003
936.11  1.4416E+003
936.22  1.4228E+003
936.33  1.4022E+003
936.43  1.4020E+003
936.54  1.3958E+003
936.64  1.3752E+003
936.75  1.3564E+003
936.85  1.3436E+003
936.96  1.3238E+003
937.06  1.3166E+003
937.17  1.3462E+003
937.27  1.3998E+003
937.38  1.4670E+003
937.49  1.5164E+003
937.59  1.5106E+003
937.70  1.5044E+003
937.80  1.5212E+003
937.91  1.5124E+003
938.01  1.5110E+003
938.12  1.5296E+003
938.22  1.5294E+003
938.33  1.4776E+003
938.44  1.4388E+003
938.54  1.4532E+003
938.65  1.4808E+003
938.75  1.4900E+003
938.86  1.5034E+003
938.96  1.4884E+003
939.07  1.4316E+003
939.17  1.3876E+003
939.28  1.3528E+003
939.38  1.3276E+003
939.49  1.3420E+003
939.60  1.3710E+003
939.70  1.3860E+003
939.81  1.3908E+003
939.91  1.4008E+003
940.02  1.4064E+003
940.12  1.4046E+003
940.23  1.4118E+003
940.33  1.4412E+003
940.44  1.4562E+003
940.55  1.4582E+003
940.65  1.4414E+003
940.76  1.3816E+003
940.86  1.3320E+003
940.97  1.3094E+003
941.07  1.3054E+003
941.18  1.3330E+003
941.28  1.4338E+003
941.39  1.5344E+003
941.50  1.5968E+003
941.60  1.6364E+003
941.71  1.6714E+003
941.81  1.6538E+003
941.92  1.6306E+003
942.02  1.6348E+003
942.13  1.6454E+003
942.23  1.6448E+003
942.34  1.6476E+003
942.45  1.6166E+003
942.55  1.5654E+003
942.66  1.5158E+003
942.76  1.4606E+003
942.87  1.4270E+003
942.97  1.4144E+003
943.08  1.3916E+003
943.18  1.3712E+003
943.29  1.3590E+003
943.39  1.3342E+003
943.50  1.3074E+003
943.61  1.3140E+003
943.71  1.3558E+003
943.82  1.4146E+003
943.92  1.4760E+003
944.03  1.5362E+003
944.13  1.5650E+003
944.24  1.5752E+003
944.34  1.5788E+003
944.45  1.5656E+003
944.56  1.5402E+003
944.66  1.5232E+003
944.77  1.5068E+003
944.87  1.4770E+003
944.98  1.4744E+003
945.08  1.4974E+003
945.19  1.5000E+003
945.29  1.4744E+003
945.40  1.4886E+003
945.51  1.5182E+003
945.61  1.5602E+003
945.72  1.6446E+003
945.82  1.7428E+003
945.93  1.7766E+003
946.03  1.7354E+003
946.14  1.6574E+003
946.24  1.5578E+003
946.35  1.4652E+003
946.46  1.4254E+003
946.56  1.4346E+003
946.67  1.4728E+003
946.77  1.5300E+003
946.88  1.5684E+003
946.98  1.5574E+003
947.09  1.5532E+003
947.19  1.5604E+003
947.30  1.5720E+003
947.41  1.6150E+003
947.51  1.6656E+003
947.62  1.6730E+003
947.72  1.6418E+003
947.83  1.5726E+003
947.93  1.4804E+003
948.04  1.3888E+003
948.14  1.3342E+003
948.25  1.3084E+003
948.36  1.3144E+003
948.46  1.3390E+003
948.57  1.3984E+003
948.67  1.4686E+003
948.78  1.5232E+003
948.88  1.5728E+003
948.99  1.5926E+003
949.09  1.5650E+003
949.20  1.4974E+003
949.31  1.4118E+003
949.41  1.3440E+003
949.52  1.3086E+003
949.62  1.3084E+003
949.73  1.3196E+003
949.83  1.3384E+003
949.94  1.3378E+003
950.04  1.3220E+003
950.15  1.2828E+003
950.26  1.2288E+003
950.36  1.1924E+003
950.47  1.1774E+003
950.57  1.1590E+003
950.68  1.1548E+003
950.78  1.1966E+003
950.89  1.2424E+003
950.99  1.2994E+003
951.10  1.3870E+003
951.21  1.4728E+003
951.31  1.5362E+003
951.42  1.5630E+003
951.52  1.5342E+003
951.63  1.4834E+003
951.73  1.4392E+003
951.84  1.4012E+003
951.94  1.3816E+003
952.05  1.3758E+003
952.16  1.3664E+003
952.26  1.3586E+003
952.37  1.3608E+003
952.47  1.3784E+003
952.58  1.4166E+003
952.68  1.4566E+003
952.79  1.4934E+003
952.90  1.5208E+003
953.00  1.5512E+003
953.11  1.5900E+003
953.21  1.6264E+003
953.32  1.6630E+003
953.42  1.6682E+003
953.53  1.6292E+003
953.63  1.5812E+003
953.74  1.5618E+003
953.85  1.5272E+003
953.95  1.5152E+003
954.06  1.5470E+003
954.16  1.5656E+003
954.27  1.5700E+003
954.37  1.5736E+003
954.48  1.5606E+003
954.58  1.5478E+003
954.69  1.5524E+003
954.80  1.5320E+003
954.90  1.5112E+003
955.01  1.5272E+003
955.11  1.5256E+003
955.22  1.4892E+003
955.32  1.4600E+003
955.43  1.4290E+003
955.53  1.3888E+003
955.64  1.3668E+003
955.75  1.3408E+003
955.85  1.3032E+003
955.96  1.2814E+003
956.06  1.2770E+003
956.17  1.2754E+003
956.27  1.2858E+003
956.38  1.3022E+003
956.49  1.3442E+003
956.59  1.4122E+003
956.70  1.4962E+003
956.80  1.6094E+003
956.91  1.7162E+003
957.01  1.7942E+003
957.12  1.8238E+003
957.22  1.8064E+003
957.33  1.7776E+003
957.44  1.7524E+003
957.54  1.7288E+003
957.65  1.6806E+003
957.75  1.6172E+003
957.86  1.5426E+003
957.96  1.4830E+003
958.07  1.4206E+003
958.17  1.3798E+003
958.28  1.3846E+003
958.39  1.4080E+003
958.49  1.3890E+003
958.60  1.3336E+003
958.70  1.2624E+003
958.81  1.1938E+003
958.91  1.1352E+003
959.02  1.1438E+003
959.13  1.1912E+003
959.23  1.2528E+003
959.34  1.3118E+003
959.44  1.3606E+003
959.55  1.3586E+003
959.65  1.3428E+003
959.76  1.3364E+003
959.86  1.3174E+003
959.97  1.3072E+003
960.08  1.3334E+003
960.18  1.3618E+003
960.29  1.3860E+003
960.39  1.3706E+003
960.50  1.3526E+003
960.60  1.3416E+003
960.71  1.3406E+003
960.81  1.3358E+003
960.92  1.3756E+003
961.03  1.3858E+003
961.13  1.3758E+003
961.24  1.3836E+003
961.34  1.3984E+003
961.45  1.3978E+003
961.55  1.3946E+003
961.66  1.3808E+003
961.77  1.3630E+003
961.87  1.3642E+003
961.98  1.3908E+003
962.08  1.4132E+003
962.19  1.4114E+003
962.29  1.3848E+003
962.40  1.3314E+003
962.50  1.2748E+003
962.61  1.2566E+003
962.72  1.2822E+003
962.82  1.3334E+003
962.93  1.3678E+003
963.03  1.3928E+003
963.14  1.4182E+003
963.24  1.4614E+003
963.35  1.4876E+003
963.46  1.5160E+003
963.56  1.5884E+003
963.67  1.6588E+003
963.77  1.6458E+003
963.88  1.6206E+003
963.98  1.6258E+003
964.09  1.5866E+003
964.19  1.5252E+003
964.30  1.5090E+003
964.41  1.4838E+003
964.51  1.4528E+003
964.62  1.4218E+003
964.72  1.3806E+003
964.83  1.3608E+003
964.93  1.3654E+003
965.04  1.3564E+003
965.15  1.3626E+003
965.25  1.4032E+003
965.36  1.4278E+003
965.46  1.4368E+003
965.57  1.4716E+003
965.67  1.4906E+003
965.78  1.4774E+003
965.88  1.4610E+003
965.99  1.4284E+003
966.10  1.3720E+003
966.20  1.3562E+003
966.31  1.3874E+003
966.41  1.4296E+003
966.52  1.5004E+003
966.62  1.5578E+003
966.73  1.5610E+003
966.84  1.5222E+003
966.94  1.4724E+003
967.05  1.4336E+003
967.15  1.4226E+003
967.26  1.4184E+003
967.36  1.3996E+003
967.47  1.4048E+003
967.58  1.4412E+003
967.68  1.4770E+003
967.79  1.5094E+003
967.89  1.5308E+003
968.00  1.5112E+003
968.10  1.4734E+003
968.21  1.4452E+003
968.31  1.3912E+003
968.42  1.3542E+003
968.53  1.3416E+003
968.63  1.2968E+003
968.74  1.2442E+003
968.84  1.2542E+003
968.95  1.3114E+003
969.05  1.3848E+003
969.16  1.4752E+003
969.27  1.5550E+003
969.37  1.5922E+003
969.48  1.5810E+003
969.58  1.5614E+003
969.69  1.5198E+003
969.79  1.4624E+003
969.90  1.3958E+003
970.00  1.3614E+003
970.11  1.3516E+003
970.22  1.3584E+003
970.32  1.3818E+003
970.43  1.4372E+003
970.53  1.5054E+003
970.64  1.5676E+003
970.74  1.6366E+003
970.85  1.6938E+003
970.96  1.7134E+003
971.06  1.6904E+003
971.17  1.6556E+003
971.27  1.6278E+003
971.38  1.6000E+003
971.48  1.5882E+003
971.59  1.5744E+003
971.70  1.5166E+003
971.80  1.4288E+003
971.91  1.3554E+003
972.01  1.2958E+003
972.12  1.2328E+003
972.22  1.2092E+003
972.33  1.2108E+003
972.43  1.2474E+003
972.54  1.2968E+003
972.65  1.3716E+003
972.75  1.4452E+003
972.86  1.5174E+003
972.96  1.5488E+003
973.07  1.5646E+003
973.17  1.5720E+003
973.28  1.5760E+003
973.39  1.5586E+003
973.49  1.5378E+003
973.60  1.5206E+003
973.70  1.5028E+003
973.81  1.4628E+003
973.91  1.4210E+003
974.02  1.3958E+003
974.13  1.3908E+003
974.23  1.3868E+003
974.34  1.4000E+003
974.44  1.4500E+003
974.55  1.5048E+003
974.65  1.5374E+003
974.76  1.5724E+003
974.87  1.5934E+003
974.97  1.5716E+003
975.08  1.5454E+003
975.18  1.5238E+003
975.29  1.4990E+003
975.39  1.4798E+003
975.50  1.4698E+003
975.60  1.4640E+003
975.71  1.4750E+003
975.82  1.4840E+003
975.92  1.4948E+003
976.03  1.5412E+003
976.13  1.5990E+003
976.24  1.5982E+003
976.34  1.5788E+003
976.45  1.5670E+003
976.56  1.5220E+003
976.66  1.4570E+003
976.77  1.4374E+003
976.87  1.4420E+003
976.98  1.4566E+003
977.08  1.4598E+003
977.19  1.4546E+003
977.30  1.4342E+003
977.40  1.3852E+003
977.51  1.3420E+003
977.61  1.3358E+003
977.72  1.3418E+003
977.82  1.3784E+003
977.93  1.4328E+003
978.03  1.4682E+003
978.14  1.5048E+003
978.25  1.5284E+003
978.35  1.5134E+003
978.46  1.5378E+003
978.56  1.5872E+003
978.67  1.6120E+003
978.77  1.6126E+003
978.88  1.6202E+003
978.99  1.6110E+003
979.09  1.5818E+003
979.20  1.5474E+003
979.30  1.5388E+003
979.41  1.5310E+003
979.51  1.5016E+003
979.62  1.4736E+003
979.73  1.4642E+003
979.83  1.4602E+003
979.94  1.4544E+003
980.04  1.4550E+003
980.15  1.4528E+003
980.25  1.4350E+003
980.36  1.3990E+003
980.47  1.3944E+003
980.57  1.4080E+003
980.68  1.4178E+003
980.78  1.4270E+003
980.89  1.4474E+003
980.99  1.4468E+003
981.10  1.4200E+003
981.21  1.3986E+003
981.31  1.4100E+003
981.42  1.4290E+003
981.52  1.4384E+003
981.63  1.4612E+003
981.73  1.5014E+003
981.84  1.5292E+003
981.94  1.5362E+003
982.05  1.5234E+003
982.16  1.4920E+003
982.26  1.4510E+003
982.37  1.3980E+003
982.47  1.3660E+003
982.58  1.3644E+003
982.68  1.3626E+003
982.79  1.3598E+003
982.90  1.3698E+003
983.00  1.3702E+003
983.11  1.3902E+003
983.21  1.4352E+003
983.32  1.4774E+003
983.42  1.4966E+003
983.53  1.4972E+003
983.64  1.4850E+003
983.74  1.4632E+003
983.85  1.4332E+003
983.95  1.4238E+003
984.06  1.4246E+003
984.16  1.3858E+003
984.27  1.3420E+003
984.38  1.3098E+003
984.48  1.2980E+003
984.59  1.2876E+003
984.69  1.2892E+003
984.80  1.2848E+003
984.90  1.2696E+003
985.01  1.2330E+003
985.12  1.2334E+003
985.22  1.2552E+003
985.33  1.2518E+003
985.43  1.2668E+003
985.54  1.2848E+003
985.64  1.2848E+003
985.75  1.2946E+003
985.86  1.3230E+003
985.96  1.3062E+003
986.07  1.3110E+003
986.17  1.3274E+003
986.28  1.3336E+003
986.38  1.3730E+003
986.49  1.4372E+003
986.59  1.4816E+003
986.70  1.5162E+003
986.81  1.5412E+003
986.91  1.5372E+003
987.02  1.5236E+003
987.12  1.5164E+003
987.23  1.5028E+003
987.33  1.5000E+003
987.44  1.4902E+003
987.55  1.4502E+003
987.65  1.3934E+003
987.76  1.3586E+003
987.86  1.3352E+003
987.97  1.3472E+003
988.07  1.4036E+003
988.18  1.4682E+003
988.29  1.5012E+003
988.39  1.4964E+003
988.50  1.4862E+003
988.60  1.4994E+003
988.71  1.4996E+003
988.81  1.4878E+003
988.92  1.4914E+003
989.03  1.4670E+003
989.13  1.4008E+003
989.24  1.3300E+003
989.34  1.2888E+003
989.45  1.2774E+003
989.55  1.3006E+003
989.66  1.3318E+003
989.77  1.3662E+003
989.87  1.3658E+003
989.98  1.3548E+003
990.08  1.3026E+003
990.19  1.2524E+003
990.29  1.2350E+003
990.40  1.2786E+003
990.51  1.3100E+003
990.61  1.3658E+003
990.72  1.4222E+003
990.82  1.4340E+003
990.93  1.3976E+003
991.03  1.3674E+003
991.14  1.3554E+003
991.25  1.3504E+003
991.35  1.3542E+003
991.46  1.3500E+003
991.56  1.3248E+003
991.67  1.3006E+003
991.77  1.2694E+003
991.88  1.2546E+003
991.98  1.2676E+003
992.09  1.2998E+003
992.20  1.3284E+003
992.30  1.3892E+003
992.41  1.4390E+003
992.51  1.4554E+003
992.62  1.4496E+003
992.72  1.4090E+003
992.83  1.3316E+003
992.94  1.2696E+003
993.04  1.2454E+003
993.15  1.2416E+003
993.25  1.2710E+003
993.36  1.3196E+003
993.46  1.3370E+003
993.57  1.3094E+003
993.68  1.2716E+003
993.78  1.2218E+003
993.89  1.1638E+003
993.99  1.1530E+003
994.10  1.2010E+003
994.20  1.2598E+003
994.31  1.3112E+003
994.42  1.3716E+003
994.52  1.4114E+003
994.63  1.4506E+003
994.73  1.4804E+003
994.84  1.4882E+003
994.94  1.4746E+003
995.05  1.4366E+003
995.16  1.4004E+003
995.26  1.3708E+003
995.37  1.3636E+003
995.47  1.3852E+003
995.58  1.4244E+003
995.68  1.4310E+003
995.79  1.4336E+003
995.90  1.4694E+003
996.00  1.4846E+003
996.11  1.4604E+003
996.21  1.4338E+003
996.32  1.4270E+003
996.42  1.4072E+003
996.53  1.3806E+003
996.64  1.3620E+003
996.74  1.3478E+003
996.85  1.3228E+003
996.95  1.2982E+003
997.06  1.3074E+003
997.16  1.3728E+003
997.27  1.4568E+003
997.38  1.5270E+003
997.48  1.5710E+003
997.59  1.5704E+003
997.69  1.5558E+003
997.80  1.5424E+003
997.90  1.5152E+003
998.01  1.4932E+003
998.12  1.4860E+003
998.22  1.4756E+003
998.33  1.4844E+003
998.43  1.5064E+003
998.54  1.5332E+003
998.64  1.5794E+003
998.75  1.6008E+003
998.86  1.5982E+003
998.96  1.5980E+003
999.07  1.5786E+003
999.17  1.5202E+003
999.28  1.4626E+003
999.38  1.4064E+003
999.49  1.3740E+003
999.59  1.3628E+003
999.70  1.3684E+003
999.81  1.3734E+003
999.91  1.3296E+003
1000.02  1.2702E+003
1000.12  1.2508E+003
1000.23  1.2830E+003
1000.33  1.3648E+003
1000.44  1.4866E+003
1000.55  1.5476E+003
1000.65  1.5564E+003
1000.76  1.5290E+003
1000.86  1.4592E+003
1000.97  1.4042E+003
1001.07  1.4312E+003
1001.18  1.4610E+003
1001.29  1.4998E+003
1001.39  1.5480E+003
1001.50  1.5550E+003
1001.60  1.5360E+003
1001.71  1.5314E+003
1001.81  1.5282E+003
1001.92  1.5294E+003
1002.03  1.5392E+003
1002.13  1.5536E+003
1002.24  1.5540E+003
1002.34  1.5304E+003
1002.45  1.4908E+003
1002.55  1.4678E+003
1002.66  1.4320E+003
1002.77  1.3898E+003
1002.87  1.3448E+003
1002.98  1.3224E+003
1003.08  1.3084E+003
1003.19  1.3210E+003
1003.29  1.3508E+003
1003.40  1.3768E+003
1003.51  1.4354E+003
1003.61  1.4954E+003
1003.72  1.5174E+003
1003.82  1.5018E+003
1003.93  1.4620E+003
1004.03  1.3816E+003
1004.14  1.3172E+003
1004.25  1.2752E+003
1004.35  1.2706E+003
1004.46  1.3170E+003
1004.56  1.3588E+003
1004.67  1.3920E+003
1004.77  1.4552E+003
1004.88  1.4984E+003
1004.99  1.4976E+003
1005.09  1.5036E+003
1005.20  1.5170E+003
1005.30  1.5264E+003
1005.41  1.5384E+003
1005.51  1.5574E+003
1005.62  1.5722E+003
1005.73  1.5662E+003
1005.83  1.5094E+003
1005.94  1.4944E+003
1006.04  1.5144E+003
1006.15  1.4966E+003
1006.25  1.4434E+003
1006.36  1.4300E+003
1006.47  1.3984E+003
1006.57  1.3698E+003
1006.68  1.3872E+003
1006.78  1.4512E+003
1006.89  1.4900E+003
1006.99  1.5122E+003
1007.10  1.5268E+003
1007.21  1.5434E+003
1007.31  1.5412E+003
1007.42  1.5370E+003
1007.52  1.4948E+003
1007.63  1.4102E+003
1007.73  1.2848E+003
1007.84  1.1684E+003
1007.94  1.0750E+003
1008.05  9.8996E+002
1008.16  1.0470E+003
1008.26  1.5710E+003
1008.37  1.5710E+003
1008.47  1.5710E+003
