" File: Users\nstheobald.FORTLEWIS.005\Desktop\R
" SCOPE->  Wave:902.92nm  Pix:1050  Val:2522.604  Time:5000ms  Avg:1  Sm:1  Sg:0  Tc:off  SNAP  Xt:3  Ch:1   1663.
 795.00  2.2309E+003
 795.25  2.1987E+003
 795.50  2.1004E+003
 795.75  2.0710E+003
 796.00  2.0830E+003
 796.25  2.0424E+003
 796.50  1.8972E+003
 796.75  1.7776E+003
 797.00  1.7553E+003
 797.25  1.8728E+003
 797.50  2.0463E+003
 797.75  2.1921E+003
 798.00  2.3513E+003
 798.25  2.4281E+003
 798.50  2.6508E+003
 798.75  2.9708E+003
 799.00  3.1765E+003
 799.25  3.3724E+003
 799.50  3.5484E+003
 799.75  3.5669E+003
 800.00  3.5884E+003
 800.25  3.5186E+003
 800.50  3.3840E+003
 800.75  3.4543E+003
 801.00  3.5489E+003
 801.25  3.7049E+003
 801.50  3.8722E+003
 801.75  3.8356E+003
 802.00  3.8341E+003
 802.25  3.8514E+003
 802.50  3.7787E+003
 802.75  3.7752E+003
 803.00  3.8522E+003
 803.25  3.8113E+003
 803.50  3.6691E+003
 803.75  3.6805E+003
 804.00  3.7262E+003
 804.25  3.7501E+003
 804.50  3.8422E+003
 804.75  3.8830E+003
 805.00  3.8862E+003
 805.25  3.9311E+003
 805.50  3.9765E+003
 805.75  3.9564E+003
 806.00  3.8109E+003
 806.25  3.5697E+003
 806.50  3.4358E+003
 806.75  3.3721E+003
 807.00  3.3386E+003
 807.25  3.4272E+003
 807.50  3.4137E+003
 807.75  3.3547E+003
 808.00  3.4421E+003
 808.25  3.5467E+003
 808.50  3.6397E+003
 808.75  3.6880E+003
 809.00  3.7006E+003
 809.25  3.7868E+003
 809.50  3.8144E+003
 809.75  3.7217E+003
 810.00  3.6853E+003
 810.25  3.5709E+003
 810.50  3.4080E+003
 810.75  3.3186E+003
 811.00  3.2876E+003
 811.25  3.2658E+003
 811.50  3.2131E+003
 811.75  3.1937E+003
 812.00  3.3214E+003
 812.25  3.5971E+003
 812.50  3.7411E+003
 812.75  3.6912E+003
 813.00  3.6049E+003
 813.25  3.5572E+003
 813.50  3.4867E+003
 813.75  3.3949E+003
 814.00  3.3020E+003
 814.25  3.2061E+003
 814.50  3.1002E+003
 814.75  3.0528E+003
 815.00  3.1026E+003
 815.25  3.1542E+003
 815.50  3.2465E+003
 815.75  3.4511E+003
 816.00  3.5328E+003
 816.25  3.4874E+003
 816.50  3.3936E+003
 816.75  3.3512E+003
 817.00  3.3888E+003
 817.25  3.4042E+003
 817.50  3.4148E+003
 817.75  3.3493E+003
 818.00  3.2177E+003
 818.25  3.0705E+003
 818.50  3.0264E+003
 818.75  3.0747E+003
 819.00  3.1086E+003
 819.25  3.1910E+003
 819.50  3.2651E+003
 819.75  3.3673E+003
 820.00  3.3677E+003
 820.25  3.2050E+003
 820.50  3.2152E+003
 820.75  3.2698E+003
 821.00  3.1655E+003
 821.25  3.1062E+003
 821.50  3.1633E+003
 821.75  3.2243E+003
 822.00  3.1083E+003
 822.25  3.0594E+003
 822.50  3.1498E+003
 822.75  3.2454E+003
 823.00  3.3881E+003
 823.25  3.4431E+003
 823.50  3.4234E+003
 823.75  3.3827E+003
 824.00  3.3657E+003
 824.25  3.5702E+003
 824.50  3.6327E+003
 824.75  3.4038E+003
 825.00  3.1598E+003
 825.25  3.0666E+003
 825.50  3.1910E+003
 825.75  3.3376E+003
 826.00  3.3016E+003
 826.25  3.2991E+003
 826.50  3.3079E+003
 826.75  3.1497E+003
 827.00  3.0188E+003
 827.25  3.0491E+003
 827.50  3.0733E+003
 827.75  3.0337E+003
 828.00  2.9327E+003
 828.25  2.8737E+003
 828.50  2.9032E+003
 828.75  2.7798E+003
 829.00  2.7606E+003
 829.25  2.8072E+003
 829.50  2.8300E+003
 829.75  2.8883E+003
 830.00  2.9801E+003
 830.25  3.2021E+003
 830.50  3.4937E+003
 830.75  3.7021E+003
 831.00  3.6637E+003
 831.25  3.5141E+003
 831.50  3.2968E+003
 831.75  3.0794E+003
 832.00  3.0560E+003
 832.25  3.1825E+003
 832.50  3.2019E+003
 832.75  3.1326E+003
 833.00  3.1289E+003
 833.25  3.2561E+003
 833.50  3.2251E+003
 833.75  3.0969E+003
 834.00  3.1638E+003
 834.25  3.1954E+003
 834.50  3.2586E+003
 834.75  3.3381E+003
 835.00  3.3325E+003
 835.25  3.3087E+003
 835.50  3.0781E+003
 835.75  2.7988E+003
 836.00  2.8180E+003
 836.25  2.9801E+003
 836.50  3.0176E+003
 836.75  2.8603E+003
 837.00  2.7982E+003
 837.25  2.9945E+003
 837.50  3.1775E+003
 837.75  3.4003E+003
 838.00  3.6194E+003
 838.25  3.5412E+003
 838.50  3.3995E+003
 838.75  3.4096E+003
 839.00  3.4347E+003
 839.25  3.4500E+003
 839.50  3.3218E+003
 839.75  3.0488E+003
 840.00  2.8976E+003
 840.25  2.9205E+003
 840.50  2.9579E+003
 840.75  2.8571E+003
 841.00  2.8753E+003
 841.25  2.9635E+003
 841.50  2.9965E+003
 841.75  3.0865E+003
 842.00  3.2388E+003
 842.25  3.4850E+003
 842.50  3.5549E+003
 842.75  3.5021E+003
 843.00  3.5169E+003
 843.25  3.6172E+003
 843.50  3.8016E+003
 843.75  3.7545E+003
 844.00  3.4128E+003
 844.25  3.1169E+003
 844.50  2.9585E+003
 844.75  2.9381E+003
 845.00  2.9238E+003
 845.25  2.9204E+003
 845.50  3.0494E+003
 845.75  3.2956E+003
 846.00  3.3907E+003
 846.25  3.2383E+003
 846.50  3.0793E+003
 846.75  3.0281E+003
 847.00  3.0123E+003
 847.25  2.9562E+003
 847.50  2.8573E+003
 847.75  2.8566E+003
 848.00  2.8832E+003
 848.25  2.8273E+003
 848.50  2.8845E+003
 848.75  2.9561E+003
 849.00  2.8947E+003
 849.25  2.8594E+003
 849.50  2.9014E+003
 849.75  2.9650E+003
 850.00  2.9344E+003
 850.25  2.9125E+003
 850.50  2.8141E+003
 850.75  2.7318E+003
 851.00  2.7511E+003
 851.25  2.7520E+003
 851.50  2.7504E+003
 851.75  2.6512E+003
 852.00  2.6360E+003
 852.25  2.7559E+003
 852.50  2.9328E+003
 852.75  3.1084E+003
 853.00  3.0448E+003
 853.25  2.8796E+003
 853.50  2.8278E+003
 853.75  2.9506E+003
 854.00  3.0627E+003
 854.25  2.9419E+003
 854.50  2.7892E+003
 854.75  2.6636E+003
 855.00  2.5949E+003
 855.25  2.7023E+003
 855.50  2.7929E+003
 855.75  2.7276E+003
 856.00  2.7417E+003
 856.25  2.8092E+003
 856.50  2.8221E+003
 856.75  2.8813E+003
 857.00  2.9995E+003
 857.25  2.9512E+003
 857.50  2.7962E+003
 857.75  2.7605E+003
 858.00  2.6934E+003
 858.25  2.5258E+003
 858.50  2.5075E+003
 858.75  2.5597E+003
 859.00  2.5418E+003
 859.25  2.5860E+003
 859.50  2.7106E+003
 859.75  2.9600E+003
 860.00  3.1676E+003
 860.25  3.1521E+003
 860.50  3.1380E+003
 860.75  3.0315E+003
 861.00  2.8687E+003
 861.25  2.7991E+003
 861.50  2.7551E+003
 861.75  2.6300E+003
 862.00  2.5996E+003
 862.25  2.6383E+003
 862.50  2.5282E+003
 862.75  2.4302E+003
 863.00  2.5763E+003
 863.25  2.6673E+003
 863.50  2.5032E+003
 863.75  2.6314E+003
 864.00  2.9688E+003
 864.25  3.1691E+003
 864.50  3.2650E+003
 864.75  3.3262E+003
 865.00  3.2938E+003
 865.25  3.1984E+003
 865.50  3.0706E+003
 865.75  2.8884E+003
 866.00  2.7883E+003
 866.25  2.7316E+003
 866.50  2.6615E+003
 866.75  2.6354E+003
 867.00  2.6778E+003
 867.25  2.7595E+003
 867.50  2.8000E+003
 867.75  2.8209E+003
 868.00  2.9035E+003
 868.25  3.0179E+003
 868.50  3.1311E+003
 868.75  3.2792E+003
 869.00  3.2802E+003
 869.25  3.1910E+003
 869.50  3.0893E+003
 869.75  2.9100E+003
 870.00  2.7681E+003
 870.25  2.6859E+003
 870.50  2.6913E+003
 870.75  2.7994E+003
 871.00  2.8967E+003
 871.25  2.9580E+003
 871.50  3.0114E+003
 871.75  2.9852E+003
 872.00  2.8966E+003
 872.25  2.7609E+003
 872.50  2.7169E+003
 872.75  2.7338E+003
 873.00  2.7361E+003
 873.25  2.7475E+003
 873.50  2.6865E+003
 873.75  2.5528E+003
 874.00  2.5532E+003
 874.25  2.6975E+003
 874.50  2.9319E+003
 874.75  3.0018E+003
 875.00  2.9014E+003
 875.25  2.7724E+003
 875.50  2.6941E+003
 875.75  2.7235E+003
 876.00  2.7314E+003
 876.25  2.7793E+003
 876.50  2.7124E+003
 876.75  2.5798E+003
 877.00  2.5587E+003
 877.25  2.5085E+003
 877.50  2.4238E+003
 877.75  2.6240E+003
 878.00  2.8879E+003
 878.25  3.0123E+003
 878.50  3.1000E+003
 878.75  3.0399E+003
 879.00  2.9136E+003
 879.25  2.9253E+003
 879.50  2.9780E+003
 879.75  3.0001E+003
 880.00  3.0399E+003
 880.25  3.0223E+003
 880.50  2.9838E+003
 880.75  2.8999E+003
 881.00  2.7372E+003
 881.25  2.6929E+003
 881.50  2.6721E+003
 881.75  2.6690E+003
 882.00  2.5771E+003
 882.25  2.5639E+003
 882.50  2.7595E+003
 882.75  2.8349E+003
 883.00  2.8570E+003
 883.25  2.9390E+003
 883.50  2.8748E+003
 883.75  2.7380E+003
 884.00  2.5785E+003
 884.25  2.4638E+003
 884.50  2.5343E+003
 884.75  2.4802E+003
 885.00  2.3510E+003
 885.25  2.3884E+003
 885.50  2.4218E+003
 885.75  2.5633E+003
 886.00  2.8498E+003
 886.25  3.0068E+003
 886.50  3.0105E+003
 886.75  2.9054E+003
 887.00  2.7478E+003
 887.25  2.6735E+003
 887.50  2.6102E+003
 887.75  2.5598E+003
 888.00  2.5782E+003
 888.25  2.5982E+003
 888.50  2.5938E+003
 888.75  2.5343E+003
 889.00  2.4677E+003
 889.25  2.5565E+003
 889.50  2.6802E+003
 889.75  2.6444E+003
 890.00  2.4886E+003
 890.25  2.4054E+003
 890.50  2.5449E+003
 890.75  2.6926E+003
 891.00  2.8041E+003
 891.25  2.8240E+003
 891.50  2.7164E+003
 891.75  2.6315E+003
 892.00  2.5533E+003
 892.25  2.4940E+003
 892.50  2.4708E+003
 892.75  2.3814E+003
 893.00  2.3089E+003
 893.25  2.3550E+003
 893.50  2.4409E+003
 893.75  2.5588E+003
 894.00  2.7286E+003
 894.25  2.7959E+003
 894.50  2.7959E+003
 894.75  2.6980E+003
 895.00  2.6508E+003
 895.25  2.6112E+003
 895.50  2.3862E+003
 895.75  2.2169E+003
 896.00  2.1859E+003
 896.25  2.2453E+003
 896.50  2.3530E+003
 896.75  2.5624E+003
 897.00  2.8030E+003
 897.25  2.9294E+003
 897.50  3.0911E+003
 897.75  3.2095E+003
 898.00  3.0568E+003
 898.25  2.9154E+003
 898.50  2.8323E+003
 898.75  2.6438E+003
 899.00  2.5333E+003
 899.25  2.5195E+003
 899.50  2.4456E+003
 899.75  2.2690E+003
 900.00  2.2114E+003
 900.25  2.2485E+003
 900.50  2.2503E+003
 900.75  2.3643E+003
 901.00  2.5530E+003
 901.25  2.7076E+003
 901.50  2.7507E+003
 901.75  2.6299E+003
 902.00  2.4630E+003
 902.25  2.3031E+003
 902.50  2.3365E+003
 902.75  2.4741E+003
 903.00  2.5214E+003
 903.25  2.4623E+003
 903.50  2.3739E+003
 903.75  2.2689E+003
 904.00  2.2021E+003
 904.25  2.2294E+003
 904.50  2.2978E+003
 904.75  2.2939E+003
 905.00  2.3753E+003
 905.25  2.5363E+003
 905.50  2.6145E+003
 905.75  2.6476E+003
 906.00  2.5579E+003
 906.25  2.4108E+003
 906.50  2.2688E+003
 906.75  2.2888E+003
 907.00  2.3396E+003
 907.25  2.2807E+003
 907.50  2.3069E+003
 907.75  2.3843E+003
 908.00  2.4399E+003
 908.25  2.4310E+003
 908.50  2.4020E+003
 908.75  2.4680E+003
 909.00  2.5666E+003
 909.25  2.4785E+003
 909.50  2.3842E+003
 909.75  2.4564E+003
 910.00  2.5652E+003
 910.25  2.5463E+003
 910.50  2.3892E+003
 910.75  2.2802E+003
 911.00  2.2737E+003
 911.25  2.3186E+003
 911.50  2.3969E+003
 911.75  2.5021E+003
 912.00  2.4901E+003
 912.25  2.4255E+003
 912.50  2.4392E+003
 912.75  2.4941E+003
 913.00  2.4537E+003
 913.25  2.4318E+003
 913.50  2.4480E+003
 913.75  2.4021E+003
 914.00  2.3840E+003
 914.25  2.3102E+003
 914.50  2.1793E+003
 914.75  2.1070E+003
 915.00  2.1217E+003
 915.25  2.2488E+003
 915.50  2.4462E+003
 915.75  2.5430E+003
 916.00  2.4802E+003
 916.25  2.4299E+003
 916.50  2.4756E+003
 916.75  2.4635E+003
 917.00  2.3465E+003
 917.25  2.2618E+003
 917.50  2.1839E+003
 917.75  2.1686E+003
 918.00  2.1738E+003
 918.25  2.2353E+003
 918.50  2.2929E+003
 918.75  2.2444E+003
 919.00  2.1373E+003
 919.25  2.0594E+003
 919.50  2.2222E+003
 919.75  2.4490E+003
 920.00  2.5227E+003
 920.25  2.5954E+003
 920.50  2.5668E+003
 920.75  2.3903E+003
 921.00  2.3180E+003
 921.25  2.2369E+003
 921.50  2.1943E+003
 921.75  2.2483E+003
 922.00  2.2011E+003
 922.25  2.0576E+003
 922.50  2.1049E+003
 922.75  2.3495E+003
 923.00  2.5010E+003
 923.25  2.4954E+003
 923.50  2.4636E+003
 923.75  2.4369E+003
 924.00  2.5865E+003
 924.25  2.7716E+003
 924.50  2.7827E+003
 924.75  2.7329E+003
 925.00  2.6641E+003
 925.25  2.5870E+003
 925.50  2.4409E+003
 925.75  2.2318E+003
 926.00  2.1281E+003
 926.25  2.1504E+003
 926.50  2.2746E+003
 926.75  2.3143E+003
 927.00  2.2682E+003
 927.25  2.4317E+003
 927.50  2.6535E+003
 927.75  2.6960E+003
 928.00  2.6995E+003
 928.25  2.5324E+003
 928.50  2.2385E+003
 928.75  2.1825E+003
 929.00  2.1498E+003
 929.25  2.1712E+003
 929.50  2.2058E+003
 929.75  2.2215E+003
 930.00  2.2763E+003
 930.25  2.2772E+003
 930.50  2.3051E+003
 930.75  2.3554E+003
 931.00  2.4381E+003
 931.25  2.5004E+003
 931.50  2.5110E+003
 931.75  2.5220E+003
 932.00  2.4515E+003
 932.25  2.3670E+003
 932.50  2.2551E+003
 932.75  2.0783E+003
 933.00  2.1139E+003
 933.25  2.3097E+003
 933.50  2.2535E+003
 933.75  2.1645E+003
 934.00  2.1726E+003
 934.25  2.2440E+003
 934.50  2.3717E+003
 934.75  2.5507E+003
 935.00  2.5082E+003
 935.25  2.2732E+003
 935.50  2.0941E+003
 935.75  2.0488E+003
 936.00  2.1090E+003
 936.25  2.1615E+003
 936.50  2.1656E+003
 936.75  2.1527E+003
 937.00  2.1394E+003
 937.25  2.1479E+003
 937.50  2.1862E+003
 937.75  2.2525E+003
 938.00  2.3414E+003
 938.25  2.4600E+003
 938.50  2.5063E+003
 938.75  2.4576E+003
 939.00  2.4685E+003
 939.25  2.5378E+003
 939.50  2.3936E+003
 939.75  2.1450E+003
 940.00  2.0681E+003
 940.25  2.0539E+003
 940.50  2.0391E+003
 940.75  2.0554E+003
 941.00  2.0412E+003
 941.25  2.0016E+003
 941.50  2.0274E+003
 941.75  2.0422E+003
 942.00  2.0019E+003
 942.25  2.1188E+003
 942.50  2.4002E+003
 942.75  2.4351E+003
 943.00  2.2262E+003
 943.25  2.1972E+003
 943.50  2.2521E+003
 943.75  2.1056E+003
 944.00  1.8832E+003
 944.25  1.7139E+003
 944.50  1.6764E+003
 944.75  1.7119E+003
 945.00  1.8351E+003
 945.25  2.0558E+003
 945.50  2.2011E+003
 945.75  2.2499E+003
 946.00  2.2602E+003
 946.25  2.2799E+003
 946.50  2.3005E+003
 946.75  2.2523E+003
 947.00  2.2070E+003
 947.25  2.1711E+003
 947.50  2.0459E+003
 947.75  1.9005E+003
 948.00  1.8091E+003
 948.25  1.7472E+003
 948.50  1.7470E+003
 948.75  1.7577E+003
 949.00  1.7557E+003
 949.25  1.7837E+003
 949.50  1.8889E+003
 949.75  2.0408E+003
 950.00  2.2180E+003
 950.25  2.3536E+003
 950.50  2.3876E+003
 950.75  2.3333E+003
 951.00  2.2188E+003
 951.25  2.0660E+003
 951.50  1.9156E+003
 951.75  1.8798E+003
 952.00  1.9576E+003
 952.25  2.1063E+003
 952.50  2.2143E+003
 952.75  2.2020E+003
 953.00  2.2603E+003
 953.25  2.3143E+003
 953.50  2.3053E+003
 953.75  2.2962E+003
 954.00  2.2115E+003
 954.25  2.0262E+003
 954.50  1.8722E+003
 954.75  1.8695E+003
 955.00  1.7847E+003
 955.25  1.7037E+003
 955.50  1.9295E+003
 955.75  2.2224E+003
 956.00  2.2513E+003
 956.25  2.0932E+003
 956.50  2.0685E+003
 956.75  2.2192E+003
 957.00  2.3788E+003
 957.25  2.3859E+003
 957.50  2.3469E+003
 957.75  2.3987E+003
 958.00  2.3571E+003
 958.25  2.2783E+003
 958.50  2.1028E+003
 958.75  1.8530E+003
 959.00  1.7676E+003
 959.25  1.8234E+003
 959.50  1.7697E+003
 959.75  1.6402E+003
 960.00  1.6745E+003
 960.25  1.8319E+003
 960.50  2.0051E+003
 960.75  2.0801E+003
 961.00  2.1594E+003
 961.25  2.2207E+003
 961.50  2.1792E+003
 961.75  2.2247E+003
 962.00  2.3930E+003
 962.25  2.4620E+003
 962.50  2.2525E+003
 962.75  2.0108E+003
 963.00  1.9818E+003
 963.25  1.9746E+003
 963.50  1.9740E+003
 963.75  2.0543E+003
 964.00  2.0447E+003
 964.25  2.0684E+003
 964.50  2.1727E+003
 964.75  2.2381E+003
 965.00  2.2336E+003
 965.25  2.2062E+003
 965.50  2.2299E+003
 965.75  2.2010E+003
 966.00  2.0656E+003
 966.25  1.8524E+003
 966.50  1.6921E+003
 966.75  1.7303E+003
 967.00  1.8627E+003
 967.25  1.9523E+003
 967.50  2.0569E+003
 967.75  2.1934E+003
 968.00  2.2470E+003
 968.25  2.2319E+003
 968.50  2.2110E+003
 968.75  1.9767E+003
 969.00  1.8333E+003
 969.25  1.9473E+003
 969.50  2.1147E+003
 969.75  2.0764E+003
 970.00  1.8592E+003
 970.25  1.7042E+003
 970.50  1.7509E+003
 970.75  1.7906E+003
 971.00  1.7220E+003
 971.25  1.7115E+003
 971.50  1.7209E+003
 971.75  1.8530E+003
 972.00  2.0589E+003
 972.25  2.1351E+003
 972.50  2.0428E+003
 972.75  1.8336E+003
 973.00  1.8676E+003
 973.25  2.0806E+003
 973.50  2.1603E+003
 973.75  1.9986E+003
 974.00  1.7440E+003
 974.25  1.7271E+003
 974.50  1.8092E+003
 974.75  1.8155E+003
 975.00  1.8161E+003
 975.25  1.9579E+003
 975.50  2.1218E+003
 975.75  2.2047E+003
 976.00  2.3218E+003
 976.25  2.3716E+003
 976.50  2.2064E+003
 976.75  2.0219E+003
 977.00  1.9795E+003
 977.25  1.9130E+003
 977.50  1.7675E+003
 977.75  1.7439E+003
 978.00  1.7594E+003
 978.25  1.7725E+003
 978.50  1.8511E+003
 978.75  1.9910E+003
 979.00  2.0425E+003
 979.25  2.0611E+003
 979.50  2.2070E+003
 979.75  2.2090E+003
 980.00  2.0763E+003
 980.25  2.0468E+003
 980.50  2.0051E+003
 980.75  1.9580E+003
 981.00  1.9535E+003
 981.25  1.9642E+003
 981.50  1.8632E+003
 981.75  1.7715E+003
 982.00  1.6464E+003
 982.25  1.6098E+003
 982.50  1.7887E+003
 982.75  1.9450E+003
 983.00  2.0605E+003
 983.25  2.0703E+003
 983.50  2.0789E+003
 983.75  2.1577E+003
 984.00  2.1994E+003
 984.25  2.1285E+003
 984.50  2.0104E+003
 984.75  1.9462E+003
 985.00  1.8478E+003
 985.25  1.7604E+003
 985.50  1.7188E+003
 985.75  1.5963E+003
 986.00  1.5048E+003
 986.25  1.5758E+003
 986.50  1.7209E+003
 986.75  1.7874E+003
 987.00  1.8609E+003
 987.25  1.9721E+003
 987.50  2.1408E+003
 987.75  2.2732E+003
 988.00  2.2650E+003
 988.25  2.1216E+003
 988.50  1.9069E+003
 988.75  1.7645E+003
 989.00  1.7620E+003
 989.25  1.7705E+003
 989.50  1.7232E+003
 989.75  1.7778E+003
 990.00  1.8702E+003
 990.25  1.9830E+003
 990.50  2.0532E+003
 990.75  2.0120E+003
 991.00  2.0233E+003
 991.25  2.0507E+003
 991.50  1.9731E+003
 991.75  1.8485E+003
 992.00  1.7724E+003
 992.25  1.5724E+003
 992.50  1.4088E+003
 992.75  1.4538E+003
 993.00  1.6282E+003
 993.25  1.8453E+003
 993.50  1.9339E+003
 993.75  2.0176E+003
 994.00  2.2064E+003
 994.25  2.3000E+003
 994.50  2.3922E+003
 994.75  2.4035E+003
 995.00  2.3098E+003
 995.25  2.2402E+003
 995.50  2.0910E+003
 995.75  2.0107E+003
 996.00  2.1084E+003
 996.25  2.1423E+003
 996.50  2.0452E+003
 996.75  1.9444E+003
 997.00  1.9236E+003
 997.25  1.9796E+003
 997.50  1.9496E+003
 997.75  1.8615E+003
 998.00  1.9731E+003
 998.25  2.1681E+003
 998.50  2.1525E+003
 998.75  2.0198E+003
 999.00  1.9359E+003
 999.25  1.9452E+003
 999.50  1.9232E+003
 999.75  1.7587E+003
1000.00  1.6967E+003
1000.25  1.7018E+003
1000.50  1.6720E+003
1000.75  1.6217E+003
1001.00  1.5979E+003
1001.25  1.8248E+003
1001.50  2.0343E+003
1001.75  1.9457E+003
1002.00  1.8692E+003
1002.25  1.9509E+003
1002.50  1.9998E+003
1002.75  1.9741E+003
1003.00  1.9872E+003
1003.25  1.9768E+003
1003.50  1.8676E+003
1003.75  1.6589E+003
1004.00  1.5591E+003
1004.25  1.6055E+003
1004.50  1.7328E+003
1004.75  1.8727E+003
1005.00  1.9182E+003
1005.25  1.9346E+003
1005.50  2.0064E+003
1005.75  2.0263E+003
1006.00  2.0226E+003
1006.25  2.1411E+003
1006.50  2.1931E+003
1006.75  2.0870E+003
1007.00  2.0802E+003
1007.25  2.0321E+003
1007.50  1.8902E+003
1007.75  1.9850E+003
