" File: Users\nstheobald.FORTLEWIS.005\Desktop\R
" SCOPE->  Wave:902.92nm  Pix:1050  Val:2589.406  Time:5000ms  Avg:1  Sm:1  Sg:0  Tc:off  SNAP  Xt:3  Ch:1   1663.
 795.00  1.8226E+003
 795.25  1.9661E+003
 795.50  2.0679E+003
 795.75  1.7845E+003
 796.00  1.5798E+003
 796.25  1.6459E+003
 796.50  1.8729E+003
 796.75  1.9378E+003
 797.00  2.0379E+003
 797.25  2.1367E+003
 797.50  2.2781E+003
 797.75  2.4470E+003
 798.00  2.4689E+003
 798.25  2.5101E+003
 798.50  2.6062E+003
 798.75  2.8318E+003
 799.00  3.2102E+003
 799.25  3.4391E+003
 799.50  3.4884E+003
 799.75  3.6227E+003
 800.00  3.8296E+003
 800.25  3.8864E+003
 800.50  3.8980E+003
 800.75  3.9547E+003
 801.00  4.0633E+003
 801.25  4.1698E+003
 801.50  4.0640E+003
 801.75  3.9471E+003
 802.00  3.8855E+003
 802.25  3.8017E+003
 802.50  3.7063E+003
 802.75  3.6486E+003
 803.00  3.6852E+003
 803.25  3.8079E+003
 803.50  3.8792E+003
 803.75  3.8833E+003
 804.00  3.9269E+003
 804.25  3.8854E+003
 804.50  3.7335E+003
 804.75  3.5445E+003
 805.00  3.4016E+003
 805.25  3.3689E+003
 805.50  3.3532E+003
 805.75  3.2976E+003
 806.00  3.3753E+003
 806.25  3.5757E+003
 806.50  3.6108E+003
 806.75  3.5933E+003
 807.00  3.6715E+003
 807.25  3.7096E+003
 807.50  3.7622E+003
 807.75  3.8115E+003
 808.00  3.6987E+003
 808.25  3.5366E+003
 808.50  3.5598E+003
 808.75  3.6640E+003
 809.00  3.6274E+003
 809.25  3.5253E+003
 809.50  3.5638E+003
 809.75  3.6302E+003
 810.00  3.5928E+003
 810.25  3.5572E+003
 810.50  3.5431E+003
 810.75  3.6502E+003
 811.00  3.8249E+003
 811.25  3.8946E+003
 811.50  3.8120E+003
 811.75  3.6165E+003
 812.00  3.4768E+003
 812.25  3.4537E+003
 812.50  3.5165E+003
 812.75  3.5992E+003
 813.00  3.5045E+003
 813.25  3.3033E+003
 813.50  3.1779E+003
 813.75  3.1645E+003
 814.00  3.1814E+003
 814.25  3.2371E+003
 814.50  3.4088E+003
 814.75  3.5655E+003
 815.00  3.5689E+003
 815.25  3.4404E+003
 815.50  3.4078E+003
 815.75  3.5261E+003
 816.00  3.6007E+003
 816.25  3.7054E+003
 816.50  3.7024E+003
 816.75  3.4662E+003
 817.00  3.2285E+003
 817.25  3.1285E+003
 817.50  3.1230E+003
 817.75  3.1915E+003
 818.00  3.3177E+003
 818.25  3.3959E+003
 818.50  3.4701E+003
 818.75  3.5191E+003
 819.00  3.4896E+003
 819.25  3.4142E+003
 819.50  3.2101E+003
 819.75  2.9325E+003
 820.00  2.8505E+003
 820.25  2.8972E+003
 820.50  2.9516E+003
 820.75  3.1312E+003
 821.00  3.3241E+003
 821.25  3.3139E+003
 821.50  3.2085E+003
 821.75  3.1655E+003
 822.00  3.2097E+003
 822.25  3.1965E+003
 822.50  3.1503E+003
 822.75  3.1615E+003
 823.00  3.1399E+003
 823.25  3.1270E+003
 823.50  3.2170E+003
 823.75  3.3094E+003
 824.00  3.2657E+003
 824.25  3.0982E+003
 824.50  2.9665E+003
 824.75  3.0206E+003
 825.00  3.1480E+003
 825.25  3.0737E+003
 825.50  3.0020E+003
 825.75  3.1991E+003
 826.00  3.4923E+003
 826.25  3.6104E+003
 826.50  3.4960E+003
 826.75  3.2440E+003
 827.00  3.0341E+003
 827.25  2.8827E+003
 827.50  2.7871E+003
 827.75  2.9061E+003
 828.00  2.9590E+003
 828.25  2.8076E+003
 828.50  2.7860E+003
 828.75  2.9445E+003
 829.00  3.0042E+003
 829.25  3.0004E+003
 829.50  3.0048E+003
 829.75  3.0917E+003
 830.00  3.3033E+003
 830.25  3.4372E+003
 830.50  3.5932E+003
 830.75  3.6501E+003
 831.00  3.4250E+003
 831.25  3.1703E+003
 831.50  2.9879E+003
 831.75  2.8252E+003
 832.00  2.7655E+003
 832.25  2.9495E+003
 832.50  3.3519E+003
 832.75  3.6953E+003
 833.00  3.7778E+003
 833.25  3.5822E+003
 833.50  3.4080E+003
 833.75  3.3435E+003
 834.00  3.2549E+003
 834.25  3.1886E+003
 834.50  3.1480E+003
 834.75  3.1378E+003
 835.00  3.1028E+003
 835.25  2.9293E+003
 835.50  2.7595E+003
 835.75  2.7406E+003
 836.00  2.9080E+003
 836.25  2.9811E+003
 836.50  2.8805E+003
 836.75  2.9061E+003
 837.00  3.0708E+003
 837.25  3.2317E+003
 837.50  3.2486E+003
 837.75  3.2868E+003
 838.00  3.3811E+003
 838.25  3.3358E+003
 838.50  3.2688E+003
 838.75  3.2400E+003
 839.00  3.1938E+003
 839.25  3.1672E+003
 839.50  3.1301E+003
 839.75  3.0348E+003
 840.00  2.9534E+003
 840.25  2.9191E+003
 840.50  2.9186E+003
 840.75  2.9923E+003
 841.00  3.1179E+003
 841.25  3.1901E+003
 841.50  3.1909E+003
 841.75  3.0920E+003
 842.00  3.0144E+003
 842.25  2.9662E+003
 842.50  2.8947E+003
 842.75  2.9696E+003
 843.00  3.1970E+003
 843.25  3.5613E+003
 843.50  3.8518E+003
 843.75  3.9445E+003
 844.00  3.7504E+003
 844.25  3.4740E+003
 844.50  3.3591E+003
 844.75  3.3448E+003
 845.00  3.2648E+003
 845.25  3.1752E+003
 845.50  3.1911E+003
 845.75  3.2541E+003
 846.00  3.2169E+003
 846.25  3.1517E+003
 846.50  3.1409E+003
 846.75  3.0432E+003
 847.00  2.9834E+003
 847.25  3.0599E+003
 847.50  3.0889E+003
 847.75  3.0145E+003
 848.00  2.9662E+003
 848.25  2.9275E+003
 848.50  2.8660E+003
 848.75  2.8305E+003
 849.00  2.6982E+003
 849.25  2.4604E+003
 849.50  2.3060E+003
 849.75  2.3645E+003
 850.00  2.4932E+003
 850.25  2.5701E+003
 850.50  2.6856E+003
 850.75  2.8134E+003
 851.00  2.8520E+003
 851.25  2.8385E+003
 851.50  2.8985E+003
 851.75  2.9748E+003
 852.00  3.0195E+003
 852.25  2.9141E+003
 852.50  2.7437E+003
 852.75  2.7114E+003
 853.00  2.7926E+003
 853.25  2.8732E+003
 853.50  2.8538E+003
 853.75  2.8138E+003
 854.00  2.6654E+003
 854.25  2.5695E+003
 854.50  2.6296E+003
 854.75  2.6490E+003
 855.00  2.7673E+003
 855.25  3.0228E+003
 855.50  3.0464E+003
 855.75  2.9741E+003
 856.00  2.9092E+003
 856.25  2.8752E+003
 856.50  2.9399E+003
 856.75  2.9329E+003
 857.00  2.7707E+003
 857.25  2.6689E+003
 857.50  2.6942E+003
 857.75  2.8080E+003
 858.00  2.7515E+003
 858.25  2.5056E+003
 858.50  2.4137E+003
 858.75  2.5147E+003
 859.00  2.7009E+003
 859.25  2.9682E+003
 859.50  3.3140E+003
 859.75  3.4550E+003
 860.00  3.2196E+003
 860.25  2.9665E+003
 860.50  2.8657E+003
 860.75  2.8006E+003
 861.00  2.6709E+003
 861.25  2.5335E+003
 861.50  2.4831E+003
 861.75  2.5064E+003
 862.00  2.6000E+003
 862.25  2.6641E+003
 862.50  2.7637E+003
 862.75  2.8661E+003
 863.00  2.9736E+003
 863.25  3.0258E+003
 863.50  2.8899E+003
 863.75  2.7285E+003
 864.00  2.7516E+003
 864.25  2.8221E+003
 864.50  2.8128E+003
 864.75  2.8058E+003
 865.00  2.7575E+003
 865.25  2.6805E+003
 865.50  2.8034E+003
 865.75  3.0064E+003
 866.00  2.9831E+003
 866.25  2.8415E+003
 866.50  2.8068E+003
 866.75  2.8203E+003
 867.00  2.9250E+003
 867.25  3.1611E+003
 867.50  3.3308E+003
 867.75  3.2515E+003
 868.00  3.0454E+003
 868.25  2.9224E+003
 868.50  2.8825E+003
 868.75  2.8883E+003
 869.00  3.0547E+003
 869.25  3.1903E+003
 869.50  3.1666E+003
 869.75  3.1547E+003
 870.00  3.2721E+003
 870.25  3.3497E+003
 870.50  3.2287E+003
 870.75  3.0216E+003
 871.00  2.7849E+003
 871.25  2.6830E+003
 871.50  2.7374E+003
 871.75  2.5894E+003
 872.00  2.3986E+003
 872.25  2.4914E+003
 872.50  2.6161E+003
 872.75  2.6378E+003
 873.00  2.7363E+003
 873.25  2.8685E+003
 873.50  2.8740E+003
 873.75  2.8449E+003
 874.00  2.8116E+003
 874.25  2.6708E+003
 874.50  2.6344E+003
 874.75  2.8788E+003
 875.00  2.9225E+003
 875.25  2.7547E+003
 875.50  2.7939E+003
 875.75  2.7205E+003
 876.00  2.5308E+003
 876.25  2.5421E+003
 876.50  2.7168E+003
 876.75  2.8997E+003
 877.00  2.8426E+003
 877.25  2.6597E+003
 877.50  2.6502E+003
 877.75  2.7910E+003
 878.00  2.8043E+003
 878.25  2.7539E+003
 878.50  2.8750E+003
 878.75  2.9378E+003
 879.00  2.8870E+003
 879.25  2.7317E+003
 879.50  2.5980E+003
 879.75  2.6305E+003
 880.00  2.7385E+003
 880.25  2.8598E+003
 880.50  2.9393E+003
 880.75  2.8744E+003
 881.00  2.8971E+003
 881.25  3.0215E+003
 881.50  3.0967E+003
 881.75  3.0971E+003
 882.00  3.0889E+003
 882.25  3.1885E+003
 882.50  3.2202E+003
 882.75  3.1252E+003
 883.00  2.8946E+003
 883.25  2.6657E+003
 883.50  2.5654E+003
 883.75  2.5987E+003
 884.00  2.7786E+003
 884.25  2.8348E+003
 884.50  2.6415E+003
 884.75  2.5822E+003
 885.00  2.7520E+003
 885.25  2.9855E+003
 885.50  3.0933E+003
 885.75  3.0100E+003
 886.00  2.8482E+003
 886.25  2.7681E+003
 886.50  2.7154E+003
 886.75  2.6517E+003
 887.00  2.6163E+003
 887.25  2.5833E+003
 887.50  2.6250E+003
 887.75  2.6348E+003
 888.00  2.4686E+003
 888.25  2.3352E+003
 888.50  2.4431E+003
 888.75  2.6748E+003
 889.00  2.8621E+003
 889.25  2.8886E+003
 889.50  2.8632E+003
 889.75  2.8231E+003
 890.00  2.7186E+003
 890.25  2.6606E+003
 890.50  2.5936E+003
 890.75  2.4572E+003
 891.00  2.4162E+003
 891.25  2.5193E+003
 891.50  2.5304E+003
 891.75  2.4585E+003
 892.00  2.4924E+003
 892.25  2.6042E+003
 892.50  2.6774E+003
 892.75  2.7500E+003
 893.00  2.7375E+003
 893.25  2.7055E+003
 893.50  2.7076E+003
 893.75  2.5306E+003
 894.00  2.3848E+003
 894.25  2.4919E+003
 894.50  2.5480E+003
 894.75  2.4315E+003
 895.00  2.3208E+003
 895.25  2.3859E+003
 895.50  2.4246E+003
 895.75  2.3548E+003
 896.00  2.4602E+003
 896.25  2.6201E+003
 896.50  2.6776E+003
 896.75  2.7705E+003
 897.00  2.8798E+003
 897.25  2.8880E+003
 897.50  2.8282E+003
 897.75  2.8117E+003
 898.00  2.7867E+003
 898.25  2.6862E+003
 898.50  2.4993E+003
 898.75  2.3569E+003
 899.00  2.3945E+003
 899.25  2.5145E+003
 899.50  2.5799E+003
 899.75  2.6439E+003
 900.00  2.7463E+003
 900.25  2.8442E+003
 900.50  2.7799E+003
 900.75  2.6156E+003
 901.00  2.5738E+003
 901.25  2.5527E+003
 901.50  2.3990E+003
 901.75  2.2327E+003
 902.00  2.1111E+003
 902.25  2.2926E+003
 902.50  2.5936E+003
 902.75  2.6217E+003
 903.00  2.5470E+003
 903.25  2.4702E+003
 903.50  2.5061E+003
 903.75  2.5430E+003
 904.00  2.4273E+003
 904.25  2.4156E+003
 904.50  2.5299E+003
 904.75  2.5257E+003
 905.00  2.4245E+003
 905.25  2.3940E+003
 905.50  2.3110E+003
 905.75  2.1459E+003
 906.00  2.1576E+003
 906.25  2.3580E+003
 906.50  2.5545E+003
 906.75  2.6223E+003
 907.00  2.5983E+003
 907.25  2.6494E+003
 907.50  2.7114E+003
 907.75  2.6448E+003
 908.00  2.5865E+003
 908.25  2.5146E+003
 908.50  2.3140E+003
 908.75  2.1847E+003
 909.00  2.1044E+003
 909.25  2.0091E+003
 909.50  1.9756E+003
 909.75  2.0685E+003
 910.00  2.2780E+003
 910.25  2.4156E+003
 910.50  2.4313E+003
 910.75  2.3139E+003
 911.00  2.2136E+003
 911.25  2.3581E+003
 911.50  2.5885E+003
 911.75  2.7250E+003
 912.00  2.6819E+003
 912.25  2.5178E+003
 912.50  2.3124E+003
 912.75  2.1025E+003
 913.00  2.0666E+003
 913.25  2.0735E+003
 913.50  2.1593E+003
 913.75  2.2602E+003
 914.00  2.2368E+003
 914.25  2.1333E+003
 914.50  2.2140E+003
 914.75  2.3139E+003
 915.00  2.3319E+003
 915.25  2.2475E+003
 915.50  2.1789E+003
 915.75  2.1981E+003
 916.00  2.1721E+003
 916.25  2.1448E+003
 916.50  2.2427E+003
 916.75  2.3088E+003
 917.00  2.2515E+003
 917.25  2.2686E+003
 917.50  2.3210E+003
 917.75  2.2777E+003
 918.00  2.2933E+003
 918.25  2.3933E+003
 918.50  2.4430E+003
 918.75  2.4372E+003
 919.00  2.3532E+003
 919.25  2.4047E+003
 919.50  2.5385E+003
 919.75  2.4578E+003
 920.00  2.3278E+003
 920.25  2.0792E+003
 920.50  1.8519E+003
 920.75  1.8963E+003
 921.00  1.9796E+003
 921.25  2.0211E+003
 921.50  2.0847E+003
 921.75  2.1495E+003
 922.00  2.1355E+003
 922.25  2.2084E+003
 922.50  2.3786E+003
 922.75  2.4142E+003
 923.00  2.3339E+003
 923.25  2.3445E+003
 923.50  2.4080E+003
 923.75  2.3654E+003
 924.00  2.2210E+003
 924.25  2.2085E+003
 924.50  2.2959E+003
 924.75  2.2657E+003
 925.00  2.2765E+003
 925.25  2.4174E+003
 925.50  2.4400E+003
 925.75  2.2981E+003
 926.00  2.0815E+003
 926.25  1.9644E+003
 926.50  2.0422E+003
 926.75  2.1765E+003
 927.00  2.3209E+003
 927.25  2.3290E+003
 927.50  2.1920E+003
 927.75  2.2242E+003
 928.00  2.3196E+003
 928.25  2.2817E+003
 928.50  2.1937E+003
 928.75  2.2062E+003
 929.00  2.3021E+003
 929.25  2.2816E+003
 929.50  2.2178E+003
 929.75  2.3177E+003
 930.00  2.4013E+003
 930.25  2.3297E+003
 930.50  2.2242E+003
 930.75  2.1256E+003
 931.00  2.0523E+003
 931.25  1.9810E+003
 931.50  1.9203E+003
 931.75  1.8125E+003
 932.00  1.8969E+003
 932.25  2.2113E+003
 932.50  2.2858E+003
 932.75  2.1701E+003
 933.00  2.2071E+003
 933.25  2.4205E+003
 933.50  2.4570E+003
 933.75  2.3185E+003
 934.00  2.2820E+003
 934.25  2.2351E+003
 934.50  2.1080E+003
 934.75  2.0829E+003
 935.00  1.9905E+003
 935.25  1.7916E+003
 935.50  1.7296E+003
 935.75  1.6664E+003
 936.00  1.5905E+003
 936.25  1.7295E+003
 936.50  1.9709E+003
 936.75  2.0947E+003
 937.00  2.1621E+003
 937.25  2.2310E+003
 937.50  2.3271E+003
 937.75  2.3777E+003
 938.00  2.2572E+003
 938.25  1.9994E+003
 938.50  1.9184E+003
 938.75  1.9746E+003
 939.00  2.0592E+003
 939.25  2.1263E+003
 939.50  2.0915E+003
 939.75  2.0949E+003
 940.00  2.1104E+003
 940.25  2.1051E+003
 940.50  2.2294E+003
 940.75  2.2476E+003
 941.00  2.0776E+003
 941.25  2.0555E+003
 941.50  2.1603E+003
 941.75  2.2444E+003
 942.00  2.2567E+003
 942.25  2.2202E+003
 942.50  2.2093E+003
 942.75  2.1615E+003
 943.00  2.0006E+003
 943.25  1.9039E+003
 943.50  1.9448E+003
 943.75  1.9903E+003
 944.00  2.0712E+003
 944.25  2.1382E+003
 944.50  2.2271E+003
 944.75  2.3133E+003
 945.00  2.2941E+003
 945.25  2.1765E+003
 945.50  1.9807E+003
 945.75  1.8977E+003
 946.00  1.9533E+003
 946.25  1.9473E+003
 946.50  1.9457E+003
 946.75  1.8859E+003
 947.00  1.7173E+003
 947.25  1.6914E+003
 947.50  1.7843E+003
 947.75  1.9432E+003
 948.00  2.0018E+003
 948.25  1.9686E+003
 948.50  2.0709E+003
 948.75  2.2043E+003
 949.00  2.1460E+003
 949.25  2.0362E+003
 949.50  1.9708E+003
 949.75  1.8696E+003
 950.00  1.7689E+003
 950.25  1.7162E+003
 950.50  1.6912E+003
 950.75  1.6536E+003
 951.00  1.7092E+003
 951.25  1.7840E+003
 951.50  1.7767E+003
 951.75  1.8053E+003
 952.00  1.9277E+003
 952.25  1.9823E+003
 952.50  1.9772E+003
 952.75  2.0620E+003
 953.00  2.2587E+003
 953.25  2.3634E+003
 953.50  2.3443E+003
 953.75  2.1766E+003
 954.00  1.9674E+003
 954.25  1.9736E+003
 954.50  2.1117E+003
 954.75  2.2347E+003
 955.00  2.3180E+003
 955.25  2.1833E+003
 955.50  2.0246E+003
 955.75  1.9720E+003
 956.00  1.9458E+003
 956.25  2.0137E+003
 956.50  2.0962E+003
 956.75  2.1305E+003
 957.00  2.0456E+003
 957.25  1.9911E+003
 957.50  2.0665E+003
 957.75  2.0231E+003
 958.00  2.1061E+003
 958.25  2.2422E+003
 958.50  2.2696E+003
 958.75  2.1415E+003
 959.00  2.0162E+003
 959.25  2.1576E+003
 959.50  2.2778E+003
 959.75  2.1643E+003
 960.00  2.1812E+003
 960.25  2.3971E+003
 960.50  2.3708E+003
 960.75  2.2062E+003
 961.00  2.2217E+003
 961.25  2.2451E+003
 961.50  2.1425E+003
 961.75  2.1084E+003
 962.00  2.0760E+003
 962.25  1.8961E+003
 962.50  1.8631E+003
 962.75  2.0634E+003
 963.00  2.0630E+003
 963.25  1.9561E+003
 963.50  1.9748E+003
 963.75  2.0691E+003
 964.00  2.1560E+003
 964.25  2.1191E+003
 964.50  2.0886E+003
 964.75  2.1651E+003
 965.00  2.2738E+003
 965.25  2.1653E+003
 965.50  1.8168E+003
 965.75  1.6357E+003
 966.00  1.7537E+003
 966.25  1.9620E+003
 966.50  2.1123E+003
 966.75  2.1764E+003
 967.00  2.1085E+003
 967.25  2.0124E+003
 967.50  2.0681E+003
 967.75  2.2731E+003
 968.00  2.3720E+003
 968.25  2.2619E+003
 968.50  2.2096E+003
 968.75  2.1566E+003
 969.00  2.0329E+003
 969.25  2.0323E+003
 969.50  2.1360E+003
 969.75  2.0796E+003
 970.00  2.1128E+003
 970.25  2.2757E+003
 970.50  2.3119E+003
 970.75  2.2442E+003
 971.00  2.0655E+003
 971.25  1.9820E+003
 971.50  2.0548E+003
 971.75  2.0697E+003
 972.00  2.0184E+003
 972.25  2.0045E+003
 972.50  2.0044E+003
 972.75  1.9442E+003
 973.00  1.8956E+003
 973.25  1.9870E+003
 973.50  2.0885E+003
 973.75  2.0111E+003
 974.00  1.9428E+003
 974.25  2.1121E+003
 974.50  2.3058E+003
 974.75  2.3199E+003
 975.00  2.3373E+003
 975.25  2.3502E+003
 975.50  2.1682E+003
 975.75  2.0627E+003
 976.00  2.0796E+003
 976.25  2.0287E+003
 976.50  1.9542E+003
 976.75  1.9516E+003
 977.00  2.0429E+003
 977.25  2.1880E+003
 977.50  2.3209E+003
 977.75  2.2029E+003
 978.00  1.9688E+003
 978.25  1.8799E+003
 978.50  1.9522E+003
 978.75  2.2202E+003
 979.00  2.3666E+003
 979.25  2.3275E+003
 979.50  2.2186E+003
 979.75  2.1052E+003
 980.00  2.0266E+003
 980.25  1.9960E+003
 980.50  1.9897E+003
 980.75  1.9671E+003
 981.00  1.8499E+003
 981.25  1.8146E+003
 981.50  2.0603E+003
 981.75  2.1625E+003
 982.00  2.1203E+003
 982.25  2.1951E+003
 982.50  2.3303E+003
 982.75  2.3574E+003
 983.00  2.2319E+003
 983.25  2.2062E+003
 983.50  2.1026E+003
 983.75  1.8877E+003
 984.00  1.8688E+003
 984.25  1.9326E+003
 984.50  1.9018E+003
 984.75  1.9736E+003
 985.00  2.1913E+003
 985.25  2.2402E+003
 985.50  2.1400E+003
 985.75  2.1431E+003
 986.00  2.1284E+003
 986.25  2.0430E+003
 986.50  2.0115E+003
 986.75  1.9870E+003
 987.00  2.1035E+003
 987.25  2.2027E+003
 987.50  2.1417E+003
 987.75  2.0521E+003
 988.00  1.9387E+003
 988.25  1.8855E+003
 988.50  1.9888E+003
 988.75  2.1214E+003
 989.00  2.1953E+003
 989.25  2.2953E+003
 989.50  2.4488E+003
 989.75  2.3918E+003
 990.00  2.3056E+003
 990.25  2.2824E+003
 990.50  2.1224E+003
 990.75  1.9280E+003
 991.00  1.6951E+003
 991.25  1.5632E+003
 991.50  1.6036E+003
 991.75  1.6458E+003
 992.00  1.7072E+003
 992.25  1.9328E+003
 992.50  2.1783E+003
 992.75  2.3189E+003
 993.00  2.2781E+003
 993.25  2.1179E+003
 993.50  2.1276E+003
 993.75  2.0894E+003
 994.00  1.9591E+003
 994.25  2.0456E+003
 994.50  2.1143E+003
 994.75  2.0678E+003
 995.00  1.9756E+003
 995.25  1.8746E+003
 995.50  1.8364E+003
 995.75  1.8650E+003
 996.00  1.9096E+003
 996.25  1.8678E+003
 996.50  1.9134E+003
 996.75  2.0388E+003
 997.00  2.1679E+003
 997.25  2.2223E+003
 997.50  2.2671E+003
 997.75  2.2820E+003
 998.00  2.1536E+003
 998.25  2.0981E+003
 998.50  2.0672E+003
 998.75  1.9965E+003
 999.00  1.8698E+003
 999.25  1.7439E+003
 999.50  1.7107E+003
 999.75  1.6858E+003
1000.00  1.7357E+003
1000.25  1.9614E+003
1000.50  2.1075E+003
1000.75  2.1808E+003
1001.00  2.2973E+003
1001.25  2.2276E+003
1001.50  2.1082E+003
1001.75  2.1146E+003
1002.00  2.1676E+003
1002.25  2.1855E+003
1002.50  2.1203E+003
1002.75  1.9659E+003
1003.00  1.8431E+003
1003.25  1.8611E+003
1003.50  1.9036E+003
1003.75  1.9278E+003
1004.00  1.9722E+003
1004.25  2.0359E+003
1004.50  2.0747E+003
1004.75  2.0060E+003
1005.00  1.9763E+003
1005.25  2.0755E+003
1005.50  2.1217E+003
1005.75  2.0402E+003
1006.00  1.9763E+003
1006.25  1.9951E+003
1006.50  1.9638E+003
1006.75  1.7908E+003
1007.00  1.7236E+003
1007.25  1.8379E+003
1007.50  1.9264E+003
1007.75  2.0277E+003
