" File: Users\nstheobald.FORTLEWIS.005\Desktop\R
" SCOPE->  Wave:902.92nm  Pix:1050  Val:2652.915  Time:5000ms  Avg:1  Sm:1  Sg:0  Tc:off  SNAP  Xt:3  Ch:1   1663.
 795.00  1.9564E+003
 795.25  2.0752E+003
 795.50  2.0152E+003
 795.75  1.7979E+003
 796.00  1.9256E+003
 796.25  1.9010E+003
 796.50  1.8990E+003
 796.75  1.9363E+003
 797.00  2.0476E+003
 797.25  2.1603E+003
 797.50  2.1253E+003
 797.75  2.0555E+003
 798.00  2.1227E+003
 798.25  2.2673E+003
 798.50  2.5487E+003
 798.75  2.9746E+003
 799.00  3.3148E+003
 799.25  3.3957E+003
 799.50  3.3872E+003
 799.75  3.4055E+003
 800.00  3.5822E+003
 800.25  3.8112E+003
 800.50  3.9000E+003
 800.75  3.9454E+003
 801.00  3.8645E+003
 801.25  3.6901E+003
 801.50  3.6135E+003
 801.75  3.5929E+003
 802.00  3.4889E+003
 802.25  3.3978E+003
 802.50  3.3903E+003
 802.75  3.3578E+003
 803.00  3.3379E+003
 803.25  3.4546E+003
 803.50  3.6484E+003
 803.75  3.7157E+003
 804.00  3.6788E+003
 804.25  3.7914E+003
 804.50  3.8707E+003
 804.75  3.8178E+003
 805.00  3.7371E+003
 805.25  3.6576E+003
 805.50  3.6492E+003
 805.75  3.8753E+003
 806.00  3.9576E+003
 806.25  3.8379E+003
 806.50  3.7494E+003
 806.75  3.5257E+003
 807.00  3.4067E+003
 807.25  3.5041E+003
 807.50  3.5035E+003
 807.75  3.5227E+003
 808.00  3.7616E+003
 808.25  3.9971E+003
 808.50  3.8936E+003
 808.75  3.6518E+003
 809.00  3.6062E+003
 809.25  3.5847E+003
 809.50  3.4612E+003
 809.75  3.3428E+003
 810.00  3.2223E+003
 810.25  3.1659E+003
 810.50  3.2081E+003
 810.75  3.2602E+003
 811.00  3.3646E+003
 811.25  3.4219E+003
 811.50  3.3992E+003
 811.75  3.5134E+003
 812.00  3.6004E+003
 812.25  3.4429E+003
 812.50  3.3150E+003
 812.75  3.3566E+003
 813.00  3.2773E+003
 813.25  3.0368E+003
 813.50  2.9752E+003
 813.75  3.1112E+003
 814.00  3.1998E+003
 814.25  3.2084E+003
 814.50  3.2343E+003
 814.75  3.2704E+003
 815.00  3.2666E+003
 815.25  3.3842E+003
 815.50  3.5880E+003
 815.75  3.6418E+003
 816.00  3.6226E+003
 816.25  3.5704E+003
 816.50  3.4893E+003
 816.75  3.3809E+003
 817.00  3.2725E+003
 817.25  3.2069E+003
 817.50  3.1362E+003
 817.75  3.1690E+003
 818.00  3.3073E+003
 818.25  3.4758E+003
 818.50  3.5921E+003
 818.75  3.7308E+003
 819.00  3.8070E+003
 819.25  3.6832E+003
 819.50  3.5108E+003
 819.75  3.4211E+003
 820.00  3.2852E+003
 820.25  3.2004E+003
 820.50  3.1128E+003
 820.75  3.0362E+003
 821.00  3.0373E+003
 821.25  3.0292E+003
 821.50  3.1396E+003
 821.75  3.4248E+003
 822.00  3.5529E+003
 822.25  3.5000E+003
 822.50  3.3984E+003
 822.75  3.4022E+003
 823.00  3.4986E+003
 823.25  3.4127E+003
 823.50  3.1412E+003
 823.75  2.9799E+003
 824.00  2.9373E+003
 824.25  2.9374E+003
 824.50  2.9520E+003
 824.75  2.9291E+003
 825.00  2.8625E+003
 825.25  2.7347E+003
 825.50  2.7732E+003
 825.75  3.0881E+003
 826.00  3.4760E+003
 826.25  3.5274E+003
 826.50  3.2655E+003
 826.75  3.0845E+003
 827.00  3.1686E+003
 827.25  3.1826E+003
 827.50  3.0199E+003
 827.75  2.9604E+003
 828.00  2.9716E+003
 828.25  2.8072E+003
 828.50  2.5869E+003
 828.75  2.5488E+003
 829.00  2.6808E+003
 829.25  2.8460E+003
 829.50  2.9655E+003
 829.75  3.0216E+003
 830.00  3.0540E+003
 830.25  3.2965E+003
 830.50  3.5641E+003
 830.75  3.6208E+003
 831.00  3.5850E+003
 831.25  3.5301E+003
 831.50  3.3678E+003
 831.75  3.1210E+003
 832.00  3.0115E+003
 832.25  3.0068E+003
 832.50  3.0560E+003
 832.75  3.0463E+003
 833.00  3.0219E+003
 833.25  3.0065E+003
 833.50  2.9845E+003
 833.75  3.0399E+003
 834.00  3.1808E+003
 834.25  3.1825E+003
 834.50  3.0889E+003
 834.75  3.1425E+003
 835.00  3.2015E+003
 835.25  3.1089E+003
 835.50  3.0634E+003
 835.75  2.9836E+003
 836.00  2.8804E+003
 836.25  2.9634E+003
 836.50  2.9692E+003
 836.75  2.9058E+003
 837.00  3.0616E+003
 837.25  3.1489E+003
 837.50  3.0725E+003
 837.75  3.1208E+003
 838.00  3.3498E+003
 838.25  3.5370E+003
 838.50  3.4618E+003
 838.75  3.2297E+003
 839.00  3.0327E+003
 839.25  2.8924E+003
 839.50  2.8880E+003
 839.75  2.9269E+003
 840.00  2.9097E+003
 840.25  2.9565E+003
 840.50  3.0462E+003
 840.75  2.9953E+003
 841.00  2.9537E+003
 841.25  3.0016E+003
 841.50  3.0869E+003
 841.75  3.0493E+003
 842.00  2.8956E+003
 842.25  2.8574E+003
 842.50  2.9169E+003
 842.75  3.0675E+003
 843.00  3.2264E+003
 843.25  3.4232E+003
 843.50  3.5549E+003
 843.75  3.4654E+003
 844.00  3.4523E+003
 844.25  3.4955E+003
 844.50  3.4595E+003
 844.75  3.4172E+003
 845.00  3.3306E+003
 845.25  3.1998E+003
 845.50  3.1356E+003
 845.75  3.2039E+003
 846.00  3.2517E+003
 846.25  3.1574E+003
 846.50  3.1359E+003
 846.75  3.1048E+003
 847.00  2.9640E+003
 847.25  2.9840E+003
 847.50  3.0501E+003
 847.75  3.0807E+003
 848.00  3.1207E+003
 848.25  3.1160E+003
 848.50  3.1123E+003
 848.75  3.0957E+003
 849.00  3.0779E+003
 849.25  2.9860E+003
 849.50  2.8471E+003
 849.75  2.7449E+003
 850.00  2.6508E+003
 850.25  2.5637E+003
 850.50  2.4883E+003
 850.75  2.5307E+003
 851.00  2.6625E+003
 851.25  2.7584E+003
 851.50  2.7959E+003
 851.75  2.7692E+003
 852.00  2.8220E+003
 852.25  2.9840E+003
 852.50  3.1515E+003
 852.75  3.1070E+003
 853.00  2.9239E+003
 853.25  2.8169E+003
 853.50  2.6773E+003
 853.75  2.4814E+003
 854.00  2.4287E+003
 854.25  2.5453E+003
 854.50  2.5885E+003
 854.75  2.4737E+003
 855.00  2.4001E+003
 855.25  2.4349E+003
 855.50  2.5271E+003
 855.75  2.6599E+003
 856.00  2.7778E+003
 856.25  2.7951E+003
 856.50  2.8428E+003
 856.75  2.8751E+003
 857.00  2.8121E+003
 857.25  2.7173E+003
 857.50  2.5367E+003
 857.75  2.4507E+003
 858.00  2.5112E+003
 858.25  2.5429E+003
 858.50  2.6891E+003
 858.75  2.8912E+003
 859.00  2.9980E+003
 859.25  3.0578E+003
 859.50  3.1840E+003
 859.75  3.3753E+003
 860.00  3.3530E+003
 860.25  3.2299E+003
 860.50  3.1607E+003
 860.75  2.8713E+003
 861.00  2.5130E+003
 861.25  2.4275E+003
 861.50  2.5105E+003
 861.75  2.5127E+003
 862.00  2.5543E+003
 862.25  2.5980E+003
 862.50  2.6707E+003
 862.75  2.7668E+003
 863.00  2.7994E+003
 863.25  2.6949E+003
 863.50  2.5829E+003
 863.75  2.7093E+003
 864.00  2.8377E+003
 864.25  2.9019E+003
 864.50  3.0330E+003
 864.75  3.1249E+003
 865.00  3.0927E+003
 865.25  2.9607E+003
 865.50  2.8899E+003
 865.75  2.8949E+003
 866.00  2.8964E+003
 866.25  2.8912E+003
 866.50  2.8515E+003
 866.75  2.9086E+003
 867.00  3.0115E+003
 867.25  2.9951E+003
 867.50  3.0830E+003
 867.75  3.1185E+003
 868.00  2.9675E+003
 868.25  2.8234E+003
 868.50  2.8470E+003
 868.75  2.9211E+003
 869.00  2.9393E+003
 869.25  2.9074E+003
 869.50  2.8990E+003
 869.75  2.9519E+003
 870.00  3.0429E+003
 870.25  3.1169E+003
 870.50  3.0898E+003
 870.75  3.0966E+003
 871.00  3.0608E+003
 871.25  2.9139E+003
 871.50  2.7358E+003
 871.75  2.6460E+003
 872.00  2.5792E+003
 872.25  2.4172E+003
 872.50  2.4096E+003
 872.75  2.5930E+003
 873.00  2.6369E+003
 873.25  2.7434E+003
 873.50  2.9997E+003
 873.75  3.1326E+003
 874.00  3.0323E+003
 874.25  2.7768E+003
 874.50  2.6480E+003
 874.75  2.7267E+003
 875.00  2.8347E+003
 875.25  2.8621E+003
 875.50  2.8570E+003
 875.75  2.8408E+003
 876.00  2.7979E+003
 876.25  2.6706E+003
 876.50  2.5808E+003
 876.75  2.7359E+003
 877.00  2.8989E+003
 877.25  2.8549E+003
 877.50  2.8291E+003
 877.75  2.9285E+003
 878.00  2.9735E+003
 878.25  2.9272E+003
 878.50  2.8949E+003
 878.75  2.9029E+003
 879.00  2.8953E+003
 879.25  2.8200E+003
 879.50  2.7410E+003
 879.75  2.5695E+003
 880.00  2.3940E+003
 880.25  2.4919E+003
 880.50  2.6494E+003
 880.75  2.5967E+003
 881.00  2.6079E+003
 881.25  2.8350E+003
 881.50  3.0141E+003
 881.75  3.0322E+003
 882.00  3.0337E+003
 882.25  3.0652E+003
 882.50  2.9560E+003
 882.75  2.7452E+003
 883.00  2.5568E+003
 883.25  2.3987E+003
 883.50  2.3524E+003
 883.75  2.4044E+003
 884.00  2.5271E+003
 884.25  2.5567E+003
 884.50  2.6513E+003
 884.75  2.8398E+003
 885.00  2.9080E+003
 885.25  2.9347E+003
 885.50  2.9260E+003
 885.75  2.9615E+003
 886.00  2.9659E+003
 886.25  2.9663E+003
 886.50  3.0556E+003
 886.75  2.9936E+003
 887.00  2.8540E+003
 887.25  2.7236E+003
 887.50  2.6530E+003
 887.75  2.6213E+003
 888.00  2.5588E+003
 888.25  2.6455E+003
 888.50  2.7350E+003
 888.75  2.6786E+003
 889.00  2.7382E+003
 889.25  2.8720E+003
 889.50  2.9154E+003
 889.75  2.8551E+003
 890.00  2.7061E+003
 890.25  2.6253E+003
 890.50  2.6640E+003
 890.75  2.6397E+003
 891.00  2.6173E+003
 891.25  2.6003E+003
 891.50  2.4402E+003
 891.75  2.2981E+003
 892.00  2.2878E+003
 892.25  2.2931E+003
 892.50  2.3913E+003
 892.75  2.5566E+003
 893.00  2.6785E+003
 893.25  2.7784E+003
 893.50  2.7917E+003
 893.75  2.7678E+003
 894.00  2.7026E+003
 894.25  2.5556E+003
 894.50  2.3969E+003
 894.75  2.3875E+003
 895.00  2.5538E+003
 895.25  2.6863E+003
 895.50  2.6404E+003
 895.75  2.4901E+003
 896.00  2.5142E+003
 896.25  2.6469E+003
 896.50  2.7850E+003
 896.75  2.9329E+003
 897.00  2.9935E+003
 897.25  2.9994E+003
 897.50  3.0266E+003
 897.75  3.0254E+003
 898.00  2.9088E+003
 898.25  2.7607E+003
 898.50  2.7078E+003
 898.75  2.7299E+003
 899.00  2.7054E+003
 899.25  2.5967E+003
 899.50  2.5815E+003
 899.75  2.6379E+003
 900.00  2.7059E+003
 900.25  2.7689E+003
 900.50  2.7689E+003
 900.75  2.6893E+003
 901.00  2.6388E+003
 901.25  2.4898E+003
 901.50  2.2787E+003
 901.75  2.3273E+003
 902.00  2.5033E+003
 902.25  2.5266E+003
 902.50  2.4766E+003
 902.75  2.5728E+003
 903.00  2.6868E+003
 903.25  2.7081E+003
 903.50  2.7266E+003
 903.75  2.7403E+003
 904.00  2.8023E+003
 904.25  2.7710E+003
 904.50  2.7290E+003
 904.75  2.7162E+003
 905.00  2.5749E+003
 905.25  2.4903E+003
 905.50  2.4937E+003
 905.75  2.4030E+003
 906.00  2.2050E+003
 906.25  2.1210E+003
 906.50  2.1842E+003
 906.75  2.3532E+003
 907.00  2.5244E+003
 907.25  2.6559E+003
 907.50  2.6955E+003
 907.75  2.6242E+003
 908.00  2.6243E+003
 908.25  2.6533E+003
 908.50  2.5367E+003
 908.75  2.3051E+003
 909.00  2.1903E+003
 909.25  2.1658E+003
 909.50  2.1364E+003
 909.75  2.1036E+003
 910.00  2.1088E+003
 910.25  2.2624E+003
 910.50  2.4624E+003
 910.75  2.5165E+003
 911.00  2.4780E+003
 911.25  2.5197E+003
 911.50  2.6715E+003
 911.75  2.7610E+003
 912.00  2.7732E+003
 912.25  2.6920E+003
 912.50  2.5066E+003
 912.75  2.4823E+003
 913.00  2.4626E+003
 913.25  2.3704E+003
 913.50  2.3301E+003
 913.75  2.2841E+003
 914.00  2.2252E+003
 914.25  2.2473E+003
 914.50  2.2506E+003
 914.75  2.2666E+003
 915.00  2.3823E+003
 915.25  2.4062E+003
 915.50  2.3205E+003
 915.75  2.3083E+003
 916.00  2.3612E+003
 916.25  2.3345E+003
 916.50  2.1652E+003
 916.75  2.0124E+003
 917.00  1.9998E+003
 917.25  2.0892E+003
 917.50  2.1191E+003
 917.75  1.9825E+003
 918.00  2.0421E+003
 918.25  2.3286E+003
 918.50  2.4081E+003
 918.75  2.4389E+003
 919.00  2.4406E+003
 919.25  2.3656E+003
 919.50  2.4490E+003
 919.75  2.4953E+003
 920.00  2.3211E+003
 920.25  2.1973E+003
 920.50  2.1472E+003
 920.75  2.0902E+003
 921.00  2.1278E+003
 921.25  2.2536E+003
 921.50  2.2954E+003
 921.75  2.2665E+003
 922.00  2.3839E+003
 922.25  2.5471E+003
 922.50  2.6098E+003
 922.75  2.6126E+003
 923.00  2.6564E+003
 923.25  2.7090E+003
 923.50  2.5460E+003
 923.75  2.2624E+003
 924.00  2.0823E+003
 924.25  2.0212E+003
 924.50  2.0508E+003
 924.75  2.0868E+003
 925.00  2.1458E+003
 925.25  2.1638E+003
 925.50  2.1605E+003
 925.75  2.2802E+003
 926.00  2.3628E+003
 926.25  2.3244E+003
 926.50  2.3478E+003
 926.75  2.5340E+003
 927.00  2.6732E+003
 927.25  2.5700E+003
 927.50  2.4995E+003
 927.75  2.4948E+003
 928.00  2.3868E+003
 928.25  2.2220E+003
 928.50  2.0403E+003
 928.75  2.0343E+003
 929.00  2.1292E+003
 929.25  2.1451E+003
 929.50  2.1583E+003
 929.75  2.1785E+003
 930.00  2.2568E+003
 930.25  2.3171E+003
 930.50  2.3263E+003
 930.75  2.3730E+003
 931.00  2.3335E+003
 931.25  2.2328E+003
 931.50  2.2217E+003
 931.75  2.1993E+003
 932.00  2.2399E+003
 932.25  2.2309E+003
 932.50  2.0916E+003
 932.75  2.1299E+003
 933.00  2.2659E+003
 933.25  2.2653E+003
 933.50  2.1476E+003
 933.75  2.0824E+003
 934.00  2.1586E+003
 934.25  2.2640E+003
 934.50  2.2517E+003
 934.75  2.1671E+003
 935.00  2.2265E+003
 935.25  2.2720E+003
 935.50  2.1629E+003
 935.75  2.0392E+003
 936.00  1.9668E+003
 936.25  1.9377E+003
 936.50  1.9506E+003
 936.75  1.9889E+003
 937.00  2.1294E+003
 937.25  2.1803E+003
 937.50  2.0650E+003
 937.75  2.1264E+003
 938.00  2.2688E+003
 938.25  2.1459E+003
 938.50  2.0090E+003
 938.75  1.9995E+003
 939.00  1.9290E+003
 939.25  1.7684E+003
 939.50  1.7036E+003
 939.75  1.8748E+003
 940.00  1.9347E+003
 940.25  1.9080E+003
 940.50  1.9417E+003
 940.75  2.0846E+003
 941.00  2.1811E+003
 941.25  2.2258E+003
 941.50  2.3542E+003
 941.75  2.3167E+003
 942.00  2.2608E+003
 942.25  2.2349E+003
 942.50  2.0792E+003
 942.75  1.9767E+003
 943.00  2.1298E+003
 943.25  2.1938E+003
 943.50  2.0386E+003
 943.75  1.8664E+003
 944.00  1.8749E+003
 944.25  2.1057E+003
 944.50  2.3508E+003
 944.75  2.4846E+003
 945.00  2.4831E+003
 945.25  2.3315E+003
 945.50  2.1635E+003
 945.75  2.0383E+003
 946.00  1.9655E+003
 946.25  2.0043E+003
 946.50  1.9989E+003
 946.75  1.9260E+003
 947.00  1.9210E+003
 947.25  2.0197E+003
 947.50  2.1529E+003
 947.75  2.2753E+003
 948.00  2.3156E+003
 948.25  2.2985E+003
 948.50  2.3705E+003
 948.75  2.4853E+003
 949.00  2.4863E+003
 949.25  2.4391E+003
 949.50  2.3424E+003
 949.75  2.2034E+003
 950.00  1.9620E+003
 950.25  1.6223E+003
 950.50  1.5173E+003
 950.75  1.6863E+003
 951.00  1.8027E+003
 951.25  1.8070E+003
 951.50  1.8012E+003
 951.75  1.8485E+003
 952.00  1.9997E+003
 952.25  2.1486E+003
 952.50  2.2402E+003
 952.75  2.3996E+003
 953.00  2.4024E+003
 953.25  2.2288E+003
 953.50  2.1650E+003
 953.75  2.1890E+003
 954.00  2.1221E+003
 954.25  2.0413E+003
 954.50  1.9403E+003
 954.75  1.9024E+003
 955.00  1.9986E+003
 955.25  2.1363E+003
 955.50  2.2739E+003
 955.75  2.2866E+003
 956.00  2.2349E+003
 956.25  2.2004E+003
 956.50  2.2179E+003
 956.75  2.2471E+003
 957.00  2.2354E+003
 957.25  2.1160E+003
 957.50  1.9930E+003
 957.75  1.8921E+003
 958.00  1.8818E+003
 958.25  1.9518E+003
 958.50  1.9999E+003
 958.75  2.0082E+003
 959.00  2.0142E+003
 959.25  2.1184E+003
 959.50  2.2395E+003
 959.75  2.2873E+003
 960.00  2.3021E+003
 960.25  2.3310E+003
 960.50  2.3800E+003
 960.75  2.4431E+003
 961.00  2.3406E+003
 961.25  2.2167E+003
 961.50  2.1763E+003
 961.75  2.0797E+003
 962.00  2.0943E+003
 962.25  2.1322E+003
 962.50  2.1000E+003
 962.75  2.0950E+003
 963.00  2.0711E+003
 963.25  2.0621E+003
 963.50  2.1443E+003
 963.75  2.2569E+003
 964.00  2.3130E+003
 964.25  2.3463E+003
 964.50  2.3876E+003
 964.75  2.3862E+003
 965.00  2.2876E+003
 965.25  2.1835E+003
 965.50  2.0576E+003
 965.75  1.7989E+003
 966.00  1.7282E+003
 966.25  1.8857E+003
 966.50  1.9568E+003
 966.75  2.0132E+003
 967.00  2.1510E+003
 967.25  2.2295E+003
 967.50  2.2490E+003
 967.75  2.3094E+003
 968.00  2.3128E+003
 968.25  2.2111E+003
 968.50  2.1599E+003
 968.75  2.0626E+003
 969.00  1.9487E+003
 969.25  2.0001E+003
 969.50  2.1104E+003
 969.75  2.1585E+003
 970.00  2.1951E+003
 970.25  2.1832E+003
 970.50  2.1447E+003
 970.75  2.2140E+003
 971.00  2.3620E+003
 971.25  2.4960E+003
 971.50  2.5962E+003
 971.75  2.5119E+003
 972.00  2.2717E+003
 972.25  2.1387E+003
 972.50  2.1437E+003
 972.75  2.0463E+003
 973.00  1.9656E+003
 973.25  2.0067E+003
 973.50  1.9896E+003
 973.75  1.8741E+003
 974.00  1.8347E+003
 974.25  1.8679E+003
 974.50  1.9796E+003
 974.75  2.1723E+003
 975.00  2.2739E+003
 975.25  2.2874E+003
 975.50  2.3095E+003
 975.75  2.1984E+003
 976.00  2.0558E+003
 976.25  1.9126E+003
 976.50  1.7209E+003
 976.75  1.7276E+003
 977.00  1.8016E+003
 977.25  1.7675E+003
 977.50  1.7632E+003
 977.75  1.7579E+003
 978.00  1.7732E+003
 978.25  1.9912E+003
 978.50  2.1206E+003
 978.75  1.8987E+003
 979.00  1.7489E+003
 979.25  1.8544E+003
 979.50  1.9365E+003
 979.75  1.8746E+003
 980.00  1.8132E+003
 980.25  1.8696E+003
 980.50  1.9156E+003
 980.75  1.8670E+003
 981.00  1.7845E+003
 981.25  1.7862E+003
 981.50  1.9336E+003
 981.75  2.0974E+003
 982.00  2.1540E+003
 982.25  2.1132E+003
 982.50  2.0851E+003
 982.75  2.1676E+003
 983.00  2.3284E+003
 983.25  2.2780E+003
 983.50  2.0326E+003
 983.75  1.8666E+003
 984.00  1.8796E+003
 984.25  1.9601E+003
 984.50  2.0513E+003
 984.75  2.0235E+003
 985.00  1.9550E+003
 985.25  1.8723E+003
 985.50  1.6706E+003
 985.75  1.6436E+003
 986.00  1.8533E+003
 986.25  2.0998E+003
 986.50  2.2379E+003
 986.75  2.1938E+003
 987.00  2.1154E+003
 987.25  2.0564E+003
 987.50  2.0734E+003
 987.75  2.0616E+003
 988.00  2.0026E+003
 988.25  2.0285E+003
 988.50  2.0057E+003
 988.75  1.8754E+003
 989.00  1.9279E+003
 989.25  2.0852E+003
 989.50  2.1088E+003
 989.75  2.1529E+003
 990.00  2.1820E+003
 990.25  2.1444E+003
 990.50  2.1116E+003
 990.75  2.1458E+003
 991.00  2.1215E+003
 991.25  2.0060E+003
 991.50  1.7992E+003
 991.75  1.6169E+003
 992.00  1.5429E+003
 992.25  1.5389E+003
 992.50  1.6704E+003
 992.75  1.9920E+003
 993.00  2.1729E+003
 993.25  2.2080E+003
 993.50  2.3774E+003
 993.75  2.4541E+003
 994.00  2.3237E+003
 994.25  2.1306E+003
 994.50  2.0916E+003
 994.75  2.1575E+003
 995.00  2.0671E+003
 995.25  2.0075E+003
 995.50  2.0406E+003
 995.75  2.0104E+003
 996.00  1.9495E+003
 996.25  1.8734E+003
 996.50  1.8670E+003
 996.75  1.9174E+003
 997.00  2.0407E+003
 997.25  2.1712E+003
 997.50  2.2677E+003
 997.75  2.3263E+003
 998.00  2.3369E+003
 998.25  2.2989E+003
 998.50  2.1731E+003
 998.75  1.9317E+003
 999.00  1.6399E+003
 999.25  1.5722E+003
 999.50  1.7511E+003
 999.75  1.8521E+003
1000.00  1.8077E+003
1000.25  1.8829E+003
1000.50  1.9892E+003
1000.75  2.0445E+003
1001.00  2.1649E+003
1001.25  2.2447E+003
1001.50  2.2605E+003
1001.75  2.2853E+003
1002.00  2.2396E+003
1002.25  2.0938E+003
1002.50  1.9534E+003
1002.75  1.7979E+003
1003.00  1.7420E+003
1003.25  1.8053E+003
1003.50  1.8432E+003
1003.75  1.9427E+003
1004.00  2.0563E+003
1004.25  2.0791E+003
1004.50  2.1077E+003
1004.75  2.1793E+003
1005.00  2.2034E+003
1005.25  2.1358E+003
1005.50  2.0872E+003
1005.75  2.1535E+003
1006.00  2.1750E+003
1006.25  1.9277E+003
1006.50  1.7146E+003
1006.75  1.7584E+003
1007.00  1.8422E+003
1007.25  1.9398E+003
1007.50  2.0477E+003
1007.75  2.0161E+003
