" File: Users\nstheobald.FORTLEWIS.005\Desktop\R
" SCOPE->  Wave:902.92nm  Pix:1050  Val:2427.309  Time:5000ms  Avg:1  Sm:1  Sg:0  Tc:off  SNAP  Xt:3  Ch:1   1663.
 795.00  1.6750E+003
 795.25  1.8765E+003
 795.50  2.0863E+003
 795.75  2.3969E+003
 796.00  2.6479E+003
 796.25  2.4890E+003
 796.50  2.2098E+003
 796.75  1.9752E+003
 797.00  1.7561E+003
 797.25  1.5908E+003
 797.50  1.6989E+003
 797.75  1.8863E+003
 798.00  1.9983E+003
 798.25  2.1382E+003
 798.50  2.4954E+003
 798.75  3.0809E+003
 799.00  3.5132E+003
 799.25  3.6815E+003
 799.50  3.7455E+003
 799.75  3.7113E+003
 800.00  3.7133E+003
 800.25  3.8199E+003
 800.50  3.8803E+003
 800.75  3.8063E+003
 801.00  3.5954E+003
 801.25  3.4996E+003
 801.50  3.4736E+003
 801.75  3.4107E+003
 802.00  3.4685E+003
 802.25  3.6593E+003
 802.50  3.7697E+003
 802.75  3.7950E+003
 803.00  3.9100E+003
 803.25  4.0288E+003
 803.50  4.0001E+003
 803.75  3.9101E+003
 804.00  3.8126E+003
 804.25  3.7227E+003
 804.50  3.6126E+003
 804.75  3.4423E+003
 805.00  3.3573E+003
 805.25  3.3456E+003
 805.50  3.3507E+003
 805.75  3.4362E+003
 806.00  3.5420E+003
 806.25  3.6245E+003
 806.50  3.7253E+003
 806.75  3.9042E+003
 807.00  4.0191E+003
 807.25  4.0065E+003
 807.50  3.9373E+003
 807.75  3.8715E+003
 808.00  3.7043E+003
 808.25  3.4391E+003
 808.50  3.3456E+003
 808.75  3.3278E+003
 809.00  3.2799E+003
 809.25  3.3674E+003
 809.50  3.5892E+003
 809.75  3.6339E+003
 810.00  3.5573E+003
 810.25  3.6712E+003
 810.50  3.8692E+003
 810.75  3.9803E+003
 811.00  3.9838E+003
 811.25  3.7645E+003
 811.50  3.4411E+003
 811.75  3.2065E+003
 812.00  3.0851E+003
 812.25  3.0601E+003
 812.50  3.0517E+003
 812.75  3.0314E+003
 813.00  3.0061E+003
 813.25  3.0512E+003
 813.50  3.2684E+003
 813.75  3.5017E+003
 814.00  3.5571E+003
 814.25  3.5488E+003
 814.50  3.5987E+003
 814.75  3.5417E+003
 815.00  3.3956E+003
 815.25  3.2991E+003
 815.50  3.1775E+003
 815.75  3.0187E+003
 816.00  2.9416E+003
 816.25  2.9069E+003
 816.50  2.9185E+003
 816.75  3.0635E+003
 817.00  3.2046E+003
 817.25  3.2578E+003
 817.50  3.3261E+003
 817.75  3.3164E+003
 818.00  3.3330E+003
 818.25  3.5056E+003
 818.50  3.5654E+003
 818.75  3.3870E+003
 819.00  3.1661E+003
 819.25  2.8997E+003
 819.50  2.7478E+003
 819.75  2.8881E+003
 820.00  3.0432E+003
 820.25  2.9744E+003
 820.50  2.9550E+003
 820.75  3.1594E+003
 821.00  3.2658E+003
 821.25  3.3354E+003
 821.50  3.3685E+003
 821.75  3.3257E+003
 822.00  3.4091E+003
 822.25  3.5138E+003
 822.50  3.4407E+003
 822.75  3.2770E+003
 823.00  3.0707E+003
 823.25  2.8657E+003
 823.50  2.7352E+003
 823.75  2.8302E+003
 824.00  3.1364E+003
 824.25  3.3394E+003
 824.50  3.3463E+003
 824.75  3.3858E+003
 825.00  3.4341E+003
 825.25  3.5149E+003
 825.50  3.6326E+003
 825.75  3.6235E+003
 826.00  3.5718E+003
 826.25  3.4302E+003
 826.50  3.2293E+003
 826.75  3.1678E+003
 827.00  3.2067E+003
 827.25  3.0853E+003
 827.50  2.8510E+003
 827.75  2.7013E+003
 828.00  2.8122E+003
 828.25  3.0960E+003
 828.50  3.1573E+003
 828.75  3.0563E+003
 829.00  3.0764E+003
 829.25  3.1392E+003
 829.50  2.9885E+003
 829.75  2.7962E+003
 830.00  2.8031E+003
 830.25  2.9033E+003
 830.50  3.1338E+003
 830.75  3.2994E+003
 831.00  3.3097E+003
 831.25  3.2512E+003
 831.50  3.2625E+003
 831.75  3.3215E+003
 832.00  3.3391E+003
 832.25  3.4826E+003
 832.50  3.6857E+003
 832.75  3.7562E+003
 833.00  3.6908E+003
 833.25  3.5500E+003
 833.50  3.4815E+003
 833.75  3.4428E+003
 834.00  3.1758E+003
 834.25  2.8261E+003
 834.50  2.7133E+003
 834.75  2.6795E+003
 835.00  2.7426E+003
 835.25  2.9550E+003
 835.50  3.1316E+003
 835.75  3.2217E+003
 836.00  3.2958E+003
 836.25  3.3320E+003
 836.50  3.2818E+003
 836.75  3.1352E+003
 837.00  2.9790E+003
 837.25  2.8758E+003
 837.50  2.7280E+003
 837.75  2.6195E+003
 838.00  2.7602E+003
 838.25  3.0287E+003
 838.50  3.1502E+003
 838.75  3.1260E+003
 839.00  3.1146E+003
 839.25  3.2129E+003
 839.50  3.3481E+003
 839.75  3.4069E+003
 840.00  3.4061E+003
 840.25  3.4050E+003
 840.50  3.3758E+003
 840.75  3.2708E+003
 841.00  3.1695E+003
 841.25  3.0411E+003
 841.50  2.8848E+003
 841.75  2.6621E+003
 842.00  2.4454E+003
 842.25  2.4972E+003
 842.50  2.8136E+003
 842.75  3.1344E+003
 843.00  3.3165E+003
 843.25  3.5454E+003
 843.50  3.6809E+003
 843.75  3.6449E+003
 844.00  3.5467E+003
 844.25  3.3287E+003
 844.50  3.0388E+003
 844.75  2.8751E+003
 845.00  2.8581E+003
 845.25  2.8974E+003
 845.50  2.9116E+003
 845.75  2.7337E+003
 846.00  2.6390E+003
 846.25  2.8012E+003
 846.50  2.9890E+003
 846.75  3.1332E+003
 847.00  3.2783E+003
 847.25  3.3888E+003
 847.50  3.4068E+003
 847.75  3.3147E+003
 848.00  3.2226E+003
 848.25  3.1006E+003
 848.50  2.8511E+003
 848.75  2.5738E+003
 849.00  2.3325E+003
 849.25  2.2382E+003
 849.50  2.4140E+003
 849.75  2.6301E+003
 850.00  2.6306E+003
 850.25  2.6664E+003
 850.50  2.8190E+003
 850.75  2.9146E+003
 851.00  2.9576E+003
 851.25  2.9071E+003
 851.50  2.7749E+003
 851.75  2.7232E+003
 852.00  2.7961E+003
 852.25  2.7511E+003
 852.50  2.5626E+003
 852.75  2.3612E+003
 853.00  2.1957E+003
 853.25  2.2214E+003
 853.50  2.2968E+003
 853.75  2.3350E+003
 854.00  2.5908E+003
 854.25  2.9385E+003
 854.50  3.1549E+003
 854.75  3.2607E+003
 855.00  3.3081E+003
 855.25  3.3100E+003
 855.50  3.1529E+003
 855.75  2.8472E+003
 856.00  2.5442E+003
 856.25  2.5669E+003
 856.50  2.6985E+003
 856.75  2.6372E+003
 857.00  2.5766E+003
 857.25  2.5115E+003
 857.50  2.5580E+003
 857.75  2.6832E+003
 858.00  2.7442E+003
 858.25  2.8203E+003
 858.50  2.9364E+003
 858.75  3.0680E+003
 859.00  3.0906E+003
 859.25  3.0012E+003
 859.50  3.0445E+003
 859.75  3.1744E+003
 860.00  3.0952E+003
 860.25  2.6767E+003
 860.50  2.2171E+003
 860.75  2.0486E+003
 861.00  2.1560E+003
 861.25  2.4266E+003
 861.50  2.8383E+003
 861.75  3.1060E+003
 862.00  3.1737E+003
 862.25  3.1537E+003
 862.50  3.0509E+003
 862.75  3.0277E+003
 863.00  2.9644E+003
 863.25  2.9082E+003
 863.50  3.0258E+003
 863.75  3.0151E+003
 864.00  2.8272E+003
 864.25  2.8374E+003
 864.50  3.0169E+003
 864.75  3.1721E+003
 865.00  3.3628E+003
 865.25  3.4234E+003
 865.50  3.2677E+003
 865.75  3.0804E+003
 866.00  3.0180E+003
 866.25  3.0236E+003
 866.50  3.0507E+003
 866.75  2.9792E+003
 867.00  2.7795E+003
 867.25  2.5988E+003
 867.50  2.4093E+003
 867.75  2.3268E+003
 868.00  2.5052E+003
 868.25  2.6937E+003
 868.50  2.7239E+003
 868.75  2.8317E+003
 869.00  3.0427E+003
 869.25  3.2384E+003
 869.50  3.4123E+003
 869.75  3.4640E+003
 870.00  3.2162E+003
 870.25  2.9079E+003
 870.50  2.8723E+003
 870.75  2.8552E+003
 871.00  2.7010E+003
 871.25  2.5575E+003
 871.50  2.4746E+003
 871.75  2.4165E+003
 872.00  2.4338E+003
 872.25  2.5650E+003
 872.50  2.6814E+003
 872.75  2.7752E+003
 873.00  2.8590E+003
 873.25  2.9299E+003
 873.50  3.0364E+003
 873.75  3.1280E+003
 874.00  3.0848E+003
 874.25  2.9442E+003
 874.50  2.8976E+003
 874.75  2.8366E+003
 875.00  2.7502E+003
 875.25  2.6885E+003
 875.50  2.6170E+003
 875.75  2.5693E+003
 876.00  2.5718E+003
 876.25  2.6401E+003
 876.50  2.8541E+003
 876.75  3.0416E+003
 877.00  3.1129E+003
 877.25  3.2345E+003
 877.50  3.2574E+003
 877.75  3.0365E+003
 878.00  2.7983E+003
 878.25  2.7156E+003
 878.50  2.6750E+003
 878.75  2.5684E+003
 879.00  2.4643E+003
 879.25  2.5107E+003
 879.50  2.7384E+003
 879.75  2.8947E+003
 880.00  2.8690E+003
 880.25  2.7780E+003
 880.50  2.8696E+003
 880.75  3.0966E+003
 881.00  3.2121E+003
 881.25  3.1570E+003
 881.50  3.1813E+003
 881.75  3.2316E+003
 882.00  3.0517E+003
 882.25  2.7949E+003
 882.50  2.5942E+003
 882.75  2.4941E+003
 883.00  2.4378E+003
 883.25  2.4063E+003
 883.50  2.4987E+003
 883.75  2.7550E+003
 884.00  2.9771E+003
 884.25  3.0772E+003
 884.50  3.1517E+003
 884.75  3.1683E+003
 885.00  3.1719E+003
 885.25  3.2550E+003
 885.50  3.1160E+003
 885.75  2.8290E+003
 886.00  2.6842E+003
 886.25  2.7597E+003
 886.50  2.8616E+003
 886.75  2.8655E+003
 887.00  2.7523E+003
 887.25  2.7130E+003
 887.50  2.7524E+003
 887.75  2.8525E+003
 888.00  2.9005E+003
 888.25  2.9494E+003
 888.50  3.0366E+003
 888.75  3.0174E+003
 889.00  2.8937E+003
 889.25  2.7160E+003
 889.50  2.7036E+003
 889.75  2.7965E+003
 890.00  2.7506E+003
 890.25  2.6187E+003
 890.50  2.4593E+003
 890.75  2.4402E+003
 891.00  2.5511E+003
 891.25  2.6066E+003
 891.50  2.6980E+003
 891.75  2.7641E+003
 892.00  2.8625E+003
 892.25  2.9052E+003
 892.50  2.7958E+003
 892.75  2.7014E+003
 893.00  2.7290E+003
 893.25  2.5518E+003
 893.50  2.2464E+003
 893.75  2.0941E+003
 894.00  2.0408E+003
 894.25  2.2329E+003
 894.50  2.4667E+003
 894.75  2.5608E+003
 895.00  2.5920E+003
 895.25  2.5851E+003
 895.50  2.7542E+003
 895.75  3.1031E+003
 896.00  3.1497E+003
 896.25  2.9316E+003
 896.50  2.7535E+003
 896.75  2.6092E+003
 897.00  2.4992E+003
 897.25  2.4292E+003
 897.50  2.4230E+003
 897.75  2.5184E+003
 898.00  2.5962E+003
 898.25  2.6675E+003
 898.50  2.7305E+003
 898.75  2.7914E+003
 899.00  2.7593E+003
 899.25  2.6588E+003
 899.50  2.6752E+003
 899.75  2.7161E+003
 900.00  2.6285E+003
 900.25  2.4609E+003
 900.50  2.2863E+003
 900.75  2.1964E+003
 901.00  2.3082E+003
 901.25  2.3703E+003
 901.50  2.2202E+003
 901.75  2.1385E+003
 902.00  2.2070E+003
 902.25  2.2685E+003
 902.50  2.3576E+003
 902.75  2.3921E+003
 903.00  2.4614E+003
 903.25  2.6103E+003
 903.50  2.7280E+003
 903.75  2.7056E+003
 904.00  2.5625E+003
 904.25  2.3917E+003
 904.50  2.1770E+003
 904.75  1.9978E+003
 905.00  1.9590E+003
 905.25  2.0268E+003
 905.50  2.1945E+003
 905.75  2.4227E+003
 906.00  2.5478E+003
 906.25  2.5305E+003
 906.50  2.5156E+003
 906.75  2.7068E+003
 907.00  2.8922E+003
 907.25  2.8478E+003
 907.50  2.6477E+003
 907.75  2.4085E+003
 908.00  2.3193E+003
 908.25  2.2961E+003
 908.50  2.1966E+003
 908.75  2.0927E+003
 909.00  1.9181E+003
 909.25  1.8320E+003
 909.50  2.0368E+003
 909.75  2.2773E+003
 910.00  2.4582E+003
 910.25  2.6367E+003
 910.50  2.7547E+003
 910.75  2.6659E+003
 911.00  2.3837E+003
 911.25  2.1842E+003
 911.50  2.1691E+003
 911.75  2.1102E+003
 912.00  2.0126E+003
 912.25  1.8891E+003
 912.50  1.8056E+003
 912.75  2.0287E+003
 913.00  2.1467E+003
 913.25  2.0924E+003
 913.50  2.2311E+003
 913.75  2.3870E+003
 914.00  2.5089E+003
 914.25  2.5631E+003
 914.50  2.4883E+003
 914.75  2.3937E+003
 915.00  2.1820E+003
 915.25  1.9863E+003
 915.50  1.9230E+003
 915.75  1.8353E+003
 916.00  1.8234E+003
 916.25  1.8820E+003
 916.50  1.9585E+003
 916.75  2.0096E+003
 917.00  2.0646E+003
 917.25  2.2824E+003
 917.50  2.5537E+003
 917.75  2.6342E+003
 918.00  2.5649E+003
 918.25  2.5167E+003
 918.50  2.4985E+003
 918.75  2.4440E+003
 919.00  2.2389E+003
 919.25  2.0191E+003
 919.50  1.7823E+003
 919.75  1.6518E+003
 920.00  1.7897E+003
 920.25  1.9631E+003
 920.50  2.0744E+003
 920.75  2.1470E+003
 921.00  2.2329E+003
 921.25  2.5000E+003
 921.50  2.8382E+003
 921.75  2.8783E+003
 922.00  2.6425E+003
 922.25  2.4613E+003
 922.50  2.3993E+003
 922.75  2.3669E+003
 923.00  2.2448E+003
 923.25  2.0819E+003
 923.50  1.9639E+003
 923.75  1.8774E+003
 924.00  1.8697E+003
 924.25  2.0026E+003
 924.50  2.0123E+003
 924.75  2.0671E+003
 925.00  2.3046E+003
 925.25  2.4639E+003
 925.50  2.5175E+003
 925.75  2.5208E+003
 926.00  2.4652E+003
 926.25  2.3926E+003
 926.50  2.3825E+003
 926.75  2.2852E+003
 927.00  1.9886E+003
 927.25  1.8579E+003
 927.50  1.9772E+003
 927.75  2.0567E+003
 928.00  2.0710E+003
 928.25  2.1301E+003
 928.50  2.2636E+003
 928.75  2.2746E+003
 929.00  2.2793E+003
 929.25  2.4483E+003
 929.50  2.5600E+003
 929.75  2.4630E+003
 930.00  2.2652E+003
 930.25  2.0879E+003
 930.50  2.0216E+003
 930.75  1.9405E+003
 931.00  1.7923E+003
 931.25  1.7015E+003
 931.50  1.6386E+003
 931.75  1.6937E+003
 932.00  1.9359E+003
 932.25  2.2162E+003
 932.50  2.3954E+003
 932.75  2.4528E+003
 933.00  2.4554E+003
 933.25  2.4539E+003
 933.50  2.4061E+003
 933.75  2.3630E+003
 934.00  2.2685E+003
 934.25  2.0719E+003
 934.50  1.8591E+003
 934.75  1.7619E+003
 935.00  1.8197E+003
 935.25  1.8008E+003
 935.50  1.8291E+003
 935.75  2.0031E+003
 936.00  2.1516E+003
 936.25  2.2968E+003
 936.50  2.2951E+003
 936.75  2.1953E+003
 937.00  2.3211E+003
 937.25  2.4556E+003
 937.50  2.4800E+003
 937.75  2.4841E+003
 938.00  2.2814E+003
 938.25  1.9106E+003
 938.50  1.6942E+003
 938.75  1.6999E+003
 939.00  1.8404E+003
 939.25  1.8259E+003
 939.50  1.8556E+003
 939.75  2.1141E+003
 940.00  2.2939E+003
 940.25  2.4051E+003
 940.50  2.5438E+003
 940.75  2.5263E+003
 941.00  2.3791E+003
 941.25  2.2274E+003
 941.50  2.1245E+003
 941.75  2.1341E+003
 942.00  1.9862E+003
 942.25  1.7459E+003
 942.50  1.7427E+003
 942.75  1.8945E+003
 943.00  1.9455E+003
 943.25  1.9356E+003
 943.50  2.0663E+003
 943.75  2.1882E+003
 944.00  2.1632E+003
 944.25  2.1378E+003
 944.50  2.1552E+003
 944.75  2.1753E+003
 945.00  2.0968E+003
 945.25  1.8431E+003
 945.50  1.6814E+003
 945.75  1.6020E+003
 946.00  1.5257E+003
 946.25  1.6383E+003
 946.50  1.8291E+003
 946.75  1.9536E+003
 947.00  2.1798E+003
 947.25  2.3787E+003
 947.50  2.3807E+003
 947.75  2.3150E+003
 948.00  2.3258E+003
 948.25  2.3505E+003
 948.50  2.2196E+003
 948.75  1.9754E+003
 949.00  1.8230E+003
 949.25  1.8432E+003
 949.50  1.9095E+003
 949.75  1.9165E+003
 950.00  1.8712E+003
 950.25  1.8249E+003
 950.50  1.7937E+003
 950.75  1.9026E+003
 951.00  2.1374E+003
 951.25  2.3026E+003
 951.50  2.2587E+003
 951.75  2.1933E+003
 952.00  2.2589E+003
 952.25  2.2469E+003
 952.50  2.1074E+003
 952.75  1.9739E+003
 953.00  1.9340E+003
 953.25  2.0099E+003
 953.50  2.0171E+003
 953.75  2.0075E+003
 954.00  2.0460E+003
 954.25  2.1561E+003
 954.50  2.2808E+003
 954.75  2.4700E+003
 955.00  2.5132E+003
 955.25  2.3045E+003
 955.50  2.1715E+003
 955.75  2.2653E+003
 956.00  2.3574E+003
 956.25  2.2737E+003
 956.50  2.0962E+003
 956.75  2.0192E+003
 957.00  2.0337E+003
 957.25  1.9916E+003
 957.50  1.8849E+003
 957.75  1.7550E+003
 958.00  1.8029E+003
 958.25  2.0812E+003
 958.50  2.4318E+003
 958.75  2.5625E+003
 959.00  2.4403E+003
 959.25  2.3715E+003
 959.50  2.4101E+003
 959.75  2.2087E+003
 960.00  1.9231E+003
 960.25  1.8738E+003
 960.50  1.8201E+003
 960.75  1.7821E+003
 961.00  1.9119E+003
 961.25  2.0180E+003
 961.50  2.0410E+003
 961.75  2.0243E+003
 962.00  2.1307E+003
 962.25  2.3730E+003
 962.50  2.4938E+003
 962.75  2.4569E+003
 963.00  2.4318E+003
 963.25  2.3934E+003
 963.50  2.3198E+003
 963.75  2.2616E+003
 964.00  2.1805E+003
 964.25  2.0456E+003
 964.50  1.9267E+003
 964.75  1.7893E+003
 965.00  1.7299E+003
 965.25  1.8763E+003
 965.50  2.0730E+003
 965.75  2.2421E+003
 966.00  2.4036E+003
 966.25  2.5110E+003
 966.50  2.5035E+003
 966.75  2.3673E+003
 967.00  2.2524E+003
 967.25  2.2681E+003
 967.50  2.2348E+003
 967.75  2.0672E+003
 968.00  1.9319E+003
 968.25  1.9461E+003
 968.50  1.8920E+003
 968.75  1.8357E+003
 969.00  1.9504E+003
 969.25  2.1558E+003
 969.50  2.2944E+003
 969.75  2.3229E+003
 970.00  2.3574E+003
 970.25  2.4067E+003
 970.50  2.3667E+003
 970.75  2.1511E+003
 971.00  1.9350E+003
 971.25  1.7718E+003
 971.50  1.7434E+003
 971.75  1.9362E+003
 972.00  2.0055E+003
 972.25  1.9273E+003
 972.50  1.8465E+003
 972.75  1.7969E+003
 973.00  1.9989E+003
 973.25  2.1855E+003
 973.50  2.2612E+003
 973.75  2.3607E+003
 974.00  2.4740E+003
 974.25  2.4850E+003
 974.50  2.3777E+003
 974.75  2.2893E+003
 975.00  2.1700E+003
 975.25  2.0336E+003
 975.50  2.0199E+003
 975.75  2.0642E+003
 976.00  2.0569E+003
 976.25  1.9686E+003
 976.50  1.8202E+003
 976.75  1.7905E+003
 977.00  1.8755E+003
 977.25  1.9666E+003
 977.50  2.1024E+003
 977.75  2.2663E+003
 978.00  2.4519E+003
 978.25  2.5153E+003
 978.50  2.3971E+003
 978.75  2.1719E+003
 979.00  1.8786E+003
 979.25  1.7161E+003
 979.50  1.6959E+003
 979.75  1.7301E+003
 980.00  1.7695E+003
 980.25  1.8087E+003
 980.50  1.9726E+003
 980.75  2.2299E+003
 981.00  2.3631E+003
 981.25  2.3493E+003
 981.50  2.2182E+003
 981.75  2.0687E+003
 982.00  2.0636E+003
 982.25  2.0692E+003
 982.50  2.0296E+003
 982.75  1.8476E+003
 983.00  1.7198E+003
 983.25  1.7612E+003
 983.50  1.8005E+003
 983.75  1.9547E+003
 984.00  2.2082E+003
 984.25  2.4071E+003
 984.50  2.4141E+003
 984.75  2.3184E+003
 985.00  2.2560E+003
 985.25  2.1989E+003
 985.50  2.2089E+003
 985.75  2.3359E+003
 986.00  2.2911E+003
 986.25  2.0186E+003
 986.50  1.7590E+003
 986.75  1.6299E+003
 987.00  1.5802E+003
 987.25  1.6084E+003
 987.50  1.6583E+003
 987.75  1.7842E+003
 988.00  1.8901E+003
 988.25  1.8753E+003
 988.50  1.9556E+003
 988.75  2.0868E+003
 989.00  2.1374E+003
 989.25  2.1934E+003
 989.50  2.1454E+003
 989.75  2.0256E+003
 990.00  1.9211E+003
 990.25  1.7752E+003
 990.50  1.6427E+003
 990.75  1.6238E+003
 991.00  1.6911E+003
 991.25  1.7839E+003
 991.50  1.8349E+003
 991.75  1.8822E+003
 992.00  1.8866E+003
 992.25  1.9630E+003
 992.50  2.2457E+003
 992.75  2.3786E+003
 993.00  2.2258E+003
 993.25  2.0279E+003
 993.50  1.8416E+003
 993.75  1.7479E+003
 994.00  1.7689E+003
 994.25  1.6533E+003
 994.50  1.4847E+003
 994.75  1.4469E+003
 995.00  1.4833E+003
 995.25  1.5774E+003
 995.50  1.8288E+003
 995.75  2.0840E+003
 996.00  2.3246E+003
 996.25  2.5268E+003
 996.50  2.5726E+003
 996.75  2.5252E+003
 997.00  2.3481E+003
 997.25  2.1140E+003
 997.50  1.9737E+003
 997.75  1.8633E+003
 998.00  1.7710E+003
 998.25  1.7424E+003
 998.50  1.6466E+003
 998.75  1.5493E+003
 999.00  1.6547E+003
 999.25  1.8727E+003
 999.50  2.1127E+003
 999.75  2.2030E+003
1000.00  2.2396E+003
1000.25  2.3432E+003
1000.50  2.4198E+003
1000.75  2.4080E+003
1001.00  2.2213E+003
1001.25  2.0787E+003
1001.50  2.0014E+003
1001.75  1.8422E+003
1002.00  1.6078E+003
1002.25  1.4604E+003
1002.50  1.5449E+003
1002.75  1.6465E+003
1003.00  1.8197E+003
1003.25  2.0881E+003
1003.50  2.1515E+003
1003.75  2.0683E+003
1004.00  2.1383E+003
1004.25  2.2691E+003
1004.50  2.3589E+003
1004.75  2.3906E+003
1005.00  2.2409E+003
1005.25  2.0245E+003
1005.50  1.8886E+003
1005.75  1.8418E+003
1006.00  1.8924E+003
1006.25  1.9881E+003
1006.50  2.0817E+003
1006.75  2.0631E+003
1007.00  2.0508E+003
1007.25  2.2520E+003
1007.50  2.3461E+003
1007.75  2.2678E+003
