" File: Raman_Stuff\Data\Misc\Vials.SSM
" " SCOPE->   Wave:902.92nm  Pix:1050  Val:2549.679 Time:10000ms  Avg:1  Sm:1  Sg:0  Tc:off  SNAP  Xt:3  Ch:1   1663. 
793.16  2.6179E+003
793.26  2.6763E+003
793.37  2.6886E+003
793.47  2.7008E+003
793.57  2.6870E+003
793.68  2.6889E+003
793.78  2.6931E+003
793.89  2.6498E+003
793.99  2.4930E+003
794.09  2.5870E+003
794.20  2.8086E+003
794.30  2.8018E+003
794.40  2.7603E+003
794.51  2.5841E+003
794.61  2.5212E+003
794.71  2.5490E+003
794.82  2.5943E+003
794.92  2.5755E+003
795.03  2.5114E+003
795.13  2.3864E+003
795.23  2.2822E+003
795.34  2.2605E+003
795.44  2.2962E+003
795.54  2.3259E+003
795.65  2.1864E+003
795.75  2.2646E+003
795.86  2.4193E+003
795.96  2.5321E+003
796.06  2.6098E+003
796.17  2.4995E+003
796.27  2.5494E+003
796.37  2.7110E+003
796.48  2.7639E+003
796.58  2.8264E+003
796.69  2.8649E+003
796.79  2.8532E+003
796.89  2.8493E+003
797.00  2.8673E+003
797.10  2.8957E+003
797.20  2.9093E+003
797.31  2.9081E+003
797.41  2.8898E+003
797.51  2.8476E+003
797.62  2.7778E+003
797.72  2.7104E+003
797.83  2.6885E+003
797.93  2.6553E+003
798.03  2.6140E+003
798.14  2.5702E+003
798.24  2.5059E+003
798.34  2.4197E+003
798.45  2.3473E+003
798.55  2.2733E+003
798.66  2.2370E+003
798.76  2.2185E+003
798.86  2.2310E+003
798.97  2.2615E+003
799.07  2.2994E+003
799.17  2.3421E+003
799.28  2.3879E+003
799.38  2.4240E+003
799.49  2.4521E+003
799.59  2.5039E+003
799.69  2.5655E+003
799.80  2.6036E+003
799.90  2.6326E+003
800.01  2.6579E+003
800.11  2.6870E+003
800.21  2.7106E+003
800.32  2.7391E+003
800.42  2.7660E+003
800.52  2.7949E+003
800.63  2.7953E+003
800.73  2.7974E+003
800.84  2.8134E+003
800.94  2.8324E+003
801.04  2.8344E+003
801.15  2.8444E+003
801.25  2.8423E+003
801.35  2.8430E+003
801.46  2.8364E+003
801.56  2.8215E+003
801.67  2.8192E+003
801.77  2.7990E+003
801.87  2.7030E+003
801.98  2.6173E+003
802.08  2.5156E+003
802.18  2.3960E+003
802.29  2.2939E+003
802.39  2.2630E+003
802.50  2.2820E+003
802.60  2.3495E+003
802.70  2.4372E+003
802.81  2.5120E+003
802.91  2.5486E+003
803.02  2.5320E+003
803.12  2.4677E+003
803.22  2.3965E+003
803.33  2.3580E+003
803.43  2.3367E+003
803.53  2.3670E+003
803.64  2.4541E+003
803.74  2.5605E+003
803.85  2.6370E+003
803.95  2.7184E+003
804.05  2.7834E+003
804.16  2.8162E+003
804.26  2.8267E+003
804.37  2.8027E+003
804.47  2.7490E+003
804.57  2.6747E+003
804.68  2.5865E+003
804.78  2.5069E+003
804.88  2.4676E+003
804.99  2.4487E+003
805.09  2.4674E+003
805.20  2.5180E+003
805.30  2.5524E+003
805.40  2.5709E+003
805.51  2.5809E+003
805.61  2.5624E+003
805.72  2.5198E+003
805.82  2.4786E+003
805.92  2.4578E+003
806.03  2.4706E+003
806.13  2.4618E+003
806.24  2.4293E+003
806.34  2.4073E+003
806.44  2.3666E+003
806.55  2.3264E+003
806.65  2.3442E+003
806.75  2.3983E+003
806.86  2.4270E+003
806.96  2.4910E+003
807.07  2.5707E+003
807.17  2.6035E+003
807.27  2.6323E+003
807.38  2.6778E+003
807.48  2.7266E+003
807.59  2.7244E+003
807.69  2.7373E+003
807.79  2.7634E+003
807.90  2.7772E+003
808.00  2.7675E+003
808.11  2.7762E+003
808.21  2.8126E+003
808.31  2.8541E+003
808.42  2.8885E+003
808.52  2.9023E+003
808.63  2.8628E+003
808.73  2.7900E+003
808.83  2.6999E+003
808.94  2.6086E+003
809.04  2.5377E+003
809.15  2.5211E+003
809.25  2.4999E+003
809.35  2.4810E+003
809.46  2.4838E+003
809.56  2.4798E+003
809.67  2.4541E+003
809.77  2.4066E+003
809.87  2.3439E+003
809.98  2.2811E+003
810.08  2.2257E+003
810.18  2.2256E+003
810.29  2.2627E+003
810.39  2.3154E+003
810.50  2.3708E+003
810.60  2.4642E+003
810.70  2.5308E+003
810.81  2.5726E+003
810.91  2.6086E+003
811.02  2.6347E+003
811.12  2.6529E+003
811.22  2.6868E+003
811.33  2.7120E+003
811.43  2.7572E+003
811.54  2.8013E+003
811.64  2.8213E+003
811.74  2.8270E+003
811.85  2.8326E+003
811.95  2.8196E+003
812.06  2.8079E+003
812.16  2.8160E+003
812.26  2.7930E+003
812.37  2.7678E+003
812.47  2.7474E+003
812.58  2.7297E+003
812.68  2.6759E+003
812.78  2.6133E+003
812.89  2.5685E+003
812.99  2.4975E+003
813.10  2.4304E+003
813.20  2.3756E+003
813.30  2.3374E+003
813.41  2.3088E+003
813.51  2.3084E+003
813.62  2.3034E+003
813.72  2.2840E+003
813.82  2.2973E+003
813.93  2.3441E+003
814.03  2.4238E+003
814.14  2.5025E+003
814.24  2.5818E+003
814.35  2.6280E+003
814.45  2.6339E+003
814.55  2.5993E+003
814.66  2.5560E+003
814.76  2.5251E+003
814.87  2.5376E+003
814.97  2.6030E+003
815.07  2.6842E+003
815.18  2.7765E+003
815.28  2.8768E+003
815.39  2.9239E+003
815.49  2.9071E+003
815.59  2.8553E+003
815.70  2.7834E+003
815.80  2.7037E+003
815.91  2.6372E+003
816.01  2.5833E+003
816.11  2.5578E+003
816.22  2.5547E+003
816.32  2.5482E+003
816.43  2.5270E+003
816.53  2.4863E+003
816.63  2.4359E+003
816.74  2.3812E+003
816.84  2.3275E+003
816.95  2.3118E+003
817.05  2.3119E+003
817.16  2.3150E+003
817.26  2.3141E+003
817.36  2.3302E+003
817.47  2.3588E+003
817.57  2.4192E+003
817.68  2.4730E+003
817.78  2.5036E+003
817.88  2.4943E+003
817.99  2.4731E+003
818.09  2.4354E+003
818.20  2.4195E+003
818.30  2.4553E+003
818.40  2.5441E+003
818.51  2.6374E+003
818.61  2.7345E+003
818.72  2.8089E+003
818.82  2.8569E+003
818.92  2.8840E+003
819.03  2.8900E+003
819.13  2.8705E+003
819.24  2.8183E+003
819.34  2.7787E+003
819.45  2.7306E+003
819.55  2.6588E+003
819.65  2.5900E+003
819.76  2.5656E+003
819.86  2.5411E+003
819.97  2.5297E+003
820.07  2.5433E+003
820.17  2.5431E+003
820.28  2.5163E+003
820.38  2.5007E+003
820.49  2.4801E+003
820.59  2.4342E+003
820.70  2.4222E+003
820.80  2.4487E+003
820.90  2.4805E+003
821.01  2.5052E+003
821.11  2.5284E+003
821.22  2.5451E+003
821.32  2.5479E+003
821.42  2.5269E+003
821.53  2.4973E+003
821.63  2.4809E+003
821.74  2.4813E+003
821.84  2.4894E+003
821.95  2.5002E+003
822.05  2.5532E+003
822.15  2.6474E+003
822.26  2.7434E+003
822.36  2.8483E+003
822.47  2.9434E+003
822.57  3.0154E+003
822.67  3.0343E+003
822.78  3.0167E+003
822.88  2.9689E+003
822.99  2.9026E+003
823.09  2.8424E+003
823.20  2.7862E+003
823.30  2.7167E+003
823.40  2.6712E+003
823.51  2.6464E+003
823.61  2.6205E+003
823.72  2.6031E+003
823.82  2.5881E+003
823.92  2.5506E+003
824.03  2.5144E+003
824.13  2.4636E+003
824.24  2.4178E+003
824.34  2.3825E+003
824.45  2.3454E+003
824.55  2.3163E+003
824.65  2.3083E+003
824.76  2.2844E+003
824.86  2.2532E+003
824.97  2.2552E+003
825.07  2.2884E+003
825.18  2.3324E+003
825.28  2.4145E+003
825.38  2.5118E+003
825.49  2.6049E+003
825.59  2.7030E+003
825.70  2.7667E+003
825.80  2.8183E+003
825.91  2.8432E+003
826.01  2.8556E+003
826.11  2.8308E+003
826.22  2.7876E+003
826.32  2.7375E+003
826.43  2.7164E+003
826.53  2.7101E+003
826.63  2.7089E+003
826.74  2.7135E+003
826.84  2.7154E+003
826.95  2.7008E+003
827.05  2.6539E+003
827.16  2.5985E+003
827.26  2.5272E+003
827.36  2.4497E+003
827.47  2.3928E+003
827.57  2.3464E+003
827.68  2.3172E+003
827.78  2.3232E+003
827.89  2.3620E+003
827.99  2.3811E+003
828.09  2.3900E+003
828.20  2.4047E+003
828.30  2.4190E+003
828.41  2.4107E+003
828.51  2.4194E+003
828.62  2.4359E+003
828.72  2.4410E+003
828.82  2.4251E+003
828.93  2.3891E+003
829.03  2.3772E+003
829.14  2.3873E+003
829.24  2.4142E+003
829.35  2.4552E+003
829.45  2.5367E+003
829.55  2.6014E+003
829.66  2.6399E+003
829.76  2.6886E+003
829.87  2.7669E+003
829.97  2.8474E+003
830.08  2.8722E+003
830.18  2.8986E+003
830.28  2.8854E+003
830.39  2.8222E+003
830.49  2.7537E+003
830.60  2.7178E+003
830.70  2.6714E+003
830.81  2.6255E+003
830.91  2.5786E+003
831.02  2.5145E+003
831.12  2.4496E+003
831.22  2.3920E+003
831.33  2.3464E+003
831.43  2.3221E+003
831.54  2.3376E+003
831.64  2.3350E+003
831.75  2.3079E+003
831.85  2.2877E+003
831.95  2.2653E+003
832.06  2.2342E+003
832.16  2.2564E+003
832.27  2.3357E+003
832.37  2.4316E+003
832.48  2.4938E+003
832.58  2.5471E+003
832.68  2.5630E+003
832.79  2.5431E+003
832.89  2.5497E+003
833.00  2.5953E+003
833.10  2.6690E+003
833.21  2.7365E+003
833.31  2.8097E+003
833.42  2.8458E+003
833.52  2.8628E+003
833.62  2.8625E+003
833.73  2.8576E+003
833.83  2.8597E+003
833.94  2.8748E+003
834.04  2.8863E+003
834.15  2.8828E+003
834.25  2.8725E+003
834.35  2.8236E+003
834.46  2.7510E+003
834.56  2.6851E+003
834.67  2.6243E+003
834.77  2.5662E+003
834.88  2.5277E+003
834.98  2.5000E+003
835.09  2.4525E+003
835.19  2.4288E+003
835.29  2.4246E+003
835.40  2.4286E+003
835.50  2.4580E+003
835.61  2.4859E+003
835.71  2.5003E+003
835.82  2.4972E+003
835.92  2.4740E+003
836.02  2.4259E+003
836.13  2.4037E+003
836.23  2.4111E+003
836.34  2.4348E+003
836.44  2.4739E+003
836.55  2.5024E+003
836.65  2.5345E+003
836.76  2.5731E+003
836.86  2.6239E+003
836.96  2.6818E+003
837.07  2.7568E+003
837.17  2.8505E+003
837.28  2.9154E+003
837.38  2.9755E+003
837.49  3.0485E+003
837.59  3.1175E+003
837.70  3.1382E+003
837.80  3.0978E+003
837.90  3.0030E+003
838.01  2.8826E+003
838.11  2.7512E+003
838.22  2.6600E+003
838.32  2.6038E+003
838.43  2.5768E+003
838.53  2.5666E+003
838.64  2.5560E+003
838.74  2.5258E+003
838.84  2.4951E+003
838.95  2.4760E+003
839.05  2.4613E+003
839.16  2.4474E+003
839.26  2.4366E+003
839.37  2.4425E+003
839.47  2.4322E+003
839.58  2.4246E+003
839.68  2.4143E+003
839.78  2.4269E+003
839.89  2.4417E+003
839.99  2.4953E+003
840.10  2.5658E+003
840.20  2.6535E+003
840.31  2.7238E+003
840.41  2.8000E+003
840.52  2.8433E+003
840.62  2.8681E+003
840.72  2.9074E+003
840.83  2.9455E+003
840.93  2.9653E+003
841.04  2.9710E+003
841.14  2.9753E+003
841.25  2.9516E+003
841.35  2.8732E+003
841.46  2.8077E+003
841.56  2.7725E+003
841.66  2.7290E+003
841.77  2.6931E+003
841.87  2.6946E+003
841.98  2.6746E+003
842.08  2.6340E+003
842.19  2.5879E+003
842.29  2.5261E+003
842.40  2.4486E+003
842.50  2.3702E+003
842.61  2.3130E+003
842.71  2.2664E+003
842.81  2.2155E+003
842.92  2.2020E+003
843.02  2.2400E+003
843.13  2.2919E+003
843.23  2.3627E+003
843.34  2.4558E+003
843.44  2.5597E+003
843.55  2.6339E+003
843.65  2.7049E+003
843.76  2.7482E+003
843.86  2.7832E+003
843.96  2.8221E+003
844.07  2.8365E+003
844.17  2.8320E+003
844.28  2.8560E+003
844.38  2.9004E+003
844.49  2.9158E+003
844.59  2.9476E+003
844.70  2.9737E+003
844.80  2.9593E+003
844.90  2.8970E+003
845.01  2.8530E+003
845.11  2.8004E+003
845.22  2.7555E+003
845.32  2.7331E+003
845.43  2.7270E+003
845.53  2.6774E+003
845.64  2.6118E+003
845.74  2.5379E+003
845.85  2.4871E+003
845.95  2.4467E+003
846.05  2.4371E+003
846.16  2.4194E+003
846.26  2.3882E+003
846.37  2.3585E+003
846.47  2.3416E+003
846.58  2.3309E+003
846.68  2.3518E+003
846.79  2.3727E+003
846.89  2.3866E+003
847.00  2.4056E+003
847.10  2.4238E+003
847.21  2.4487E+003
847.31  2.5121E+003
847.41  2.5887E+003
847.52  2.6405E+003
847.62  2.6746E+003
847.73  2.6898E+003
847.83  2.7021E+003
847.94  2.7103E+003
848.04  2.7018E+003
848.15  2.6947E+003
848.25  2.7105E+003
848.36  2.7270E+003
848.46  2.7241E+003
848.56  2.7355E+003
848.67  2.7530E+003
848.77  2.7640E+003
848.88  2.7947E+003
848.98  2.8443E+003
849.09  2.8848E+003
849.19  2.9128E+003
849.30  2.9170E+003
849.40  2.8675E+003
849.51  2.7665E+003
849.61  2.6644E+003
849.72  2.5892E+003
849.82  2.5081E+003
849.92  2.4443E+003
850.03  2.4225E+003
850.13  2.4133E+003
850.24  2.4239E+003
850.34  2.4506E+003
850.45  2.4759E+003
850.55  2.4885E+003
850.66  2.4700E+003
850.76  2.4488E+003
850.87  2.4315E+003
850.97  2.3970E+003
851.08  2.3793E+003
851.18  2.4001E+003
851.28  2.4137E+003
851.39  2.4369E+003
851.49  2.4946E+003
851.60  2.5517E+003
851.70  2.6051E+003
851.81  2.6702E+003
851.91  2.7451E+003
852.02  2.8033E+003
852.12  2.8604E+003
852.23  2.8909E+003
852.33  2.9060E+003
852.44  2.8994E+003
852.54  2.8830E+003
852.65  2.8522E+003
852.75  2.8043E+003
852.85  2.7804E+003
852.96  2.7583E+003
853.06  2.7122E+003
853.17  2.6615E+003
853.27  2.5856E+003
853.38  2.4674E+003
853.48  2.3724E+003
853.59  2.3315E+003
853.69  2.3035E+003
853.80  2.3402E+003
853.90  2.4002E+003
854.01  2.4333E+003
854.11  2.4506E+003
854.21  2.4789E+003
854.32  2.5050E+003
854.42  2.5377E+003
854.53  2.5468E+003
854.63  2.5432E+003
854.74  2.5338E+003
854.84  2.5362E+003
854.95  2.5758E+003
855.05  2.6336E+003
855.16  2.7068E+003
855.26  2.8205E+003
855.37  2.8911E+003
855.47  2.9035E+003
855.58  2.9072E+003
855.68  2.9083E+003
855.79  2.9028E+003
855.89  2.9444E+003
855.99  2.9998E+003
856.10  3.0297E+003
856.20  3.0249E+003
856.31  2.9992E+003
856.41  2.9317E+003
856.52  2.8696E+003
856.62  2.8353E+003
856.73  2.8351E+003
856.83  2.8175E+003
856.94  2.7777E+003
857.04  2.7350E+003
857.15  2.6924E+003
857.25  2.6297E+003
857.36  2.5734E+003
857.46  2.5332E+003
857.57  2.4704E+003
857.67  2.3720E+003
857.77  2.2793E+003
857.88  2.2113E+003
857.98  2.1315E+003
858.09  2.0955E+003
858.19  2.1157E+003
858.30  2.1505E+003
858.40  2.1942E+003
858.51  2.2603E+003
858.61  2.3455E+003
858.72  2.4313E+003
858.82  2.5041E+003
858.93  2.5576E+003
859.03  2.6284E+003
859.14  2.6665E+003
859.24  2.6742E+003
859.35  2.7044E+003
859.45  2.7779E+003
859.56  2.8329E+003
859.66  2.8983E+003
859.76  2.9529E+003
859.87  2.9803E+003
859.97  2.9758E+003
860.08  2.9583E+003
860.18  2.9224E+003
860.29  2.8794E+003
860.39  2.8038E+003
860.50  2.6854E+003
860.60  2.5218E+003
860.71  2.4001E+003
860.81  2.3141E+003
860.92  2.2962E+003
861.02  2.3417E+003
861.13  2.4133E+003
861.23  2.4844E+003
861.34  2.5236E+003
861.44  2.5116E+003
861.55  2.4683E+003
861.65  2.4048E+003
861.76  2.3676E+003
861.86  2.3353E+003
861.96  2.3053E+003
862.07  2.3047E+003
862.17  2.3338E+003
862.28  2.3499E+003
862.38  2.3861E+003
862.49  2.4589E+003
862.59  2.5353E+003
862.70  2.5990E+003
862.80  2.6463E+003
862.91  2.6747E+003
863.01  2.7001E+003
863.12  2.7430E+003
863.22  2.7770E+003
863.33  2.8010E+003
863.43  2.8303E+003
863.54  2.8318E+003
863.64  2.7889E+003
863.75  2.7417E+003
863.85  2.6981E+003
863.96  2.6263E+003
864.06  2.5616E+003
864.17  2.5383E+003
864.27  2.5249E+003
864.37  2.5321E+003
864.48  2.5287E+003
864.58  2.5441E+003
864.69  2.5624E+003
864.79  2.5731E+003
864.90  2.5586E+003
865.00  2.5728E+003
865.11  2.5688E+003
865.21  2.5435E+003
865.32  2.5118E+003
865.42  2.4800E+003
865.53  2.4636E+003
865.63  2.4265E+003
865.74  2.3581E+003
865.84  2.2905E+003
865.95  2.2644E+003
866.05  2.2736E+003
866.16  2.3007E+003
866.26  2.3668E+003
866.37  2.4457E+003
866.47  2.5251E+003
866.58  2.5865E+003
866.68  2.6645E+003
866.79  2.7288E+003
866.89  2.8132E+003
867.00  2.8594E+003
867.10  2.8478E+003
867.21  2.8337E+003
867.31  2.8180E+003
867.41  2.7616E+003
867.52  2.7170E+003
867.62  2.7150E+003
867.73  2.6994E+003
867.83  2.6913E+003
867.94  2.7254E+003
868.04  2.7965E+003
868.15  2.8436E+003
868.25  2.8888E+003
868.36  2.9197E+003
868.46  2.8811E+003
868.57  2.8025E+003
868.67  2.7036E+003
868.78  2.5983E+003
868.88  2.4909E+003
868.99  2.4466E+003
869.09  2.4384E+003
869.20  2.4498E+003
869.30  2.4784E+003
869.41  2.5171E+003
869.51  2.5508E+003
869.62  2.5635E+003
869.72  2.5776E+003
869.83  2.5855E+003
869.93  2.5835E+003
870.04  2.5684E+003
870.14  2.5740E+003
870.25  2.6069E+003
870.35  2.6282E+003
870.46  2.6325E+003
870.56  2.6528E+003
870.67  2.6658E+003
870.77  2.6745E+003
870.88  2.7373E+003
870.98  2.8012E+003
871.09  2.8274E+003
871.19  2.8332E+003
871.30  2.8012E+003
871.40  2.7182E+003
871.51  2.6532E+003
871.61  2.5961E+003
871.71  2.5231E+003
871.82  2.4661E+003
871.92  2.4303E+003
872.03  2.4042E+003
872.13  2.4024E+003
872.24  2.4387E+003
872.34  2.4773E+003
872.45  2.5080E+003
872.55  2.5362E+003
872.66  2.5706E+003
872.76  2.6163E+003
872.87  2.6487E+003
872.97  2.6807E+003
873.08  2.7085E+003
873.18  2.7476E+003
873.29  2.7682E+003
873.39  2.7922E+003
873.50  2.8140E+003
873.60  2.8470E+003
873.71  2.8699E+003
873.81  2.8476E+003
873.92  2.8426E+003
874.02  2.8373E+003
874.13  2.8173E+003
874.23  2.7865E+003
874.34  2.7955E+003
874.44  2.8071E+003
874.55  2.8169E+003
874.65  2.8349E+003
874.76  2.8451E+003
874.86  2.8436E+003
874.97  2.8374E+003
875.07  2.7995E+003
875.18  2.7379E+003
875.28  2.6918E+003
875.39  2.6508E+003
875.49  2.6014E+003
875.60  2.5842E+003
875.70  2.5569E+003
875.81  2.4729E+003
875.91  2.3867E+003
876.02  2.2910E+003
876.12  2.1831E+003
876.23  2.1284E+003
876.33  2.1293E+003
876.44  2.1512E+003
876.54  2.1835E+003
876.65  2.2102E+003
876.75  2.2459E+003
876.86  2.2740E+003
876.96  2.2952E+003
877.07  2.3346E+003
877.17  2.3860E+003
877.28  2.4271E+003
877.38  2.4803E+003
877.49  2.5408E+003
877.59  2.6053E+003
877.70  2.6557E+003
877.80  2.7152E+003
877.91  2.7746E+003
878.01  2.8065E+003
878.12  2.8291E+003
878.22  2.8880E+003
878.33  2.9108E+003
878.43  2.8751E+003
878.54  2.8392E+003
878.64  2.7639E+003
878.75  2.6668E+003
878.85  2.5788E+003
878.96  2.5074E+003
879.06  2.4528E+003
879.17  2.4627E+003
879.27  2.4661E+003
879.38  2.4698E+003
879.48  2.5139E+003
879.59  2.5380E+003
879.69  2.5324E+003
879.80  2.5175E+003
879.90  2.4918E+003
880.01  2.4542E+003
880.11  2.4133E+003
880.22  2.3752E+003
880.32  2.3793E+003
880.43  2.3995E+003
880.53  2.4371E+003
880.64  2.4847E+003
880.74  2.5128E+003
880.85  2.4967E+003
880.95  2.4896E+003
881.06  2.4831E+003
881.16  2.4816E+003
881.27  2.4902E+003
881.37  2.5359E+003
881.48  2.6007E+003
881.58  2.6799E+003
881.69  2.7593E+003
881.79  2.8691E+003
881.90  2.9370E+003
882.00  2.9464E+003
882.11  2.9179E+003
882.21  2.8538E+003
882.32  2.8089E+003
882.42  2.7656E+003
882.53  2.7446E+003
882.63  2.7447E+003
882.74  2.7430E+003
882.84  2.6784E+003
882.95  2.6066E+003
883.05  2.5385E+003
883.16  2.4698E+003
883.26  2.3936E+003
883.37  2.3573E+003
883.47  2.3422E+003
883.58  2.3237E+003
883.68  2.3296E+003
883.79  2.3489E+003
883.89  2.3640E+003
884.00  2.3975E+003
884.10  2.4346E+003
884.21  2.4644E+003
884.31  2.5062E+003
884.42  2.5650E+003
884.52  2.6288E+003
884.63  2.6978E+003
884.73  2.7686E+003
884.84  2.8218E+003
884.94  2.8547E+003
885.05  2.8567E+003
885.15  2.8403E+003
885.26  2.7937E+003
885.36  2.7563E+003
885.47  2.7641E+003
885.57  2.8007E+003
885.68  2.8324E+003
885.78  2.8809E+003
885.89  2.9363E+003
885.99  2.9169E+003
886.10  2.8286E+003
886.20  2.7283E+003
886.31  2.6368E+003
886.41  2.5008E+003
886.52  2.4288E+003
886.62  2.4015E+003
886.73  2.3891E+003
886.83  2.4063E+003
886.94  2.4516E+003
887.04  2.4504E+003
887.15  2.4166E+003
887.25  2.3711E+003
887.36  2.3434E+003
887.46  2.3206E+003
887.57  2.3227E+003
887.67  2.3825E+003
887.78  2.4707E+003
887.88  2.5171E+003
887.99  2.5258E+003
888.09  2.5404E+003
888.20  2.5341E+003
888.30  2.5195E+003
888.41  2.5478E+003
888.51  2.5749E+003
888.62  2.6023E+003
888.72  2.6481E+003
888.83  2.6957E+003
888.94  2.7233E+003
889.04  2.7691E+003
889.15  2.8340E+003
889.25  2.9001E+003
889.36  2.9546E+003
889.46  3.0066E+003
889.57  3.0209E+003
889.67  3.0002E+003
889.78  2.9601E+003
889.88  2.8872E+003
889.99  2.7999E+003
890.09  2.7215E+003
890.20  2.6548E+003
890.30  2.5824E+003
890.41  2.5162E+003
890.51  2.4449E+003
890.62  2.3865E+003
890.72  2.3455E+003
890.83  2.3332E+003
890.93  2.3380E+003
891.04  2.3619E+003
891.14  2.4116E+003
891.25  2.4582E+003
891.35  2.5031E+003
891.46  2.5358E+003
891.56  2.5459E+003
891.67  2.5382E+003
891.77  2.5286E+003
891.88  2.5385E+003
891.98  2.5754E+003
892.09  2.6290E+003
892.19  2.7064E+003
892.30  2.7556E+003
892.40  2.7786E+003
892.51  2.7811E+003
892.61  2.7930E+003
892.72  2.7899E+003
892.82  2.8080E+003
892.93  2.8286E+003
893.03  2.8061E+003
893.14  2.7440E+003
893.25  2.6874E+003
893.35  2.6440E+003
893.46  2.6001E+003
893.56  2.5606E+003
893.67  2.5346E+003
893.77  2.5150E+003
893.88  2.4968E+003
893.98  2.4662E+003
894.09  2.4593E+003
894.19  2.4833E+003
894.30  2.5152E+003
894.40  2.5287E+003
894.51  2.5528E+003
894.61  2.5741E+003
894.72  2.5616E+003
894.82  2.4981E+003
894.93  2.4604E+003
895.03  2.4366E+003
895.14  2.4420E+003
895.24  2.4802E+003
895.35  2.5271E+003
895.45  2.5570E+003
895.56  2.5673E+003
895.66  2.5914E+003
895.77  2.6172E+003
895.87  2.6464E+003
895.98  2.6850E+003
896.08  2.7224E+003
896.19  2.7297E+003
896.29  2.7549E+003
896.40  2.8136E+003
896.50  2.8611E+003
896.61  2.8950E+003
896.72  2.9357E+003
896.82  2.9420E+003
896.93  2.8741E+003
897.03  2.7858E+003
897.14  2.7235E+003
897.24  2.6625E+003
897.35  2.6263E+003
897.45  2.6083E+003
897.56  2.5790E+003
897.66  2.5239E+003
897.77  2.4620E+003
897.87  2.3869E+003
897.98  2.3138E+003
898.08  2.2879E+003
898.19  2.2891E+003
898.29  2.2888E+003
898.40  2.3056E+003
898.50  2.3730E+003
898.61  2.4359E+003
898.71  2.4677E+003
898.82  2.4673E+003
898.92  2.4543E+003
899.03  2.4390E+003
899.13  2.4079E+003
899.24  2.4167E+003
899.35  2.4839E+003
899.45  2.5256E+003
899.56  2.5522E+003
899.66  2.5912E+003
899.77  2.6134E+003
899.87  2.6633E+003
899.98  2.7626E+003
900.08  2.8582E+003
900.19  2.9394E+003
900.29  3.0210E+003
900.40  3.0166E+003
900.50  2.9535E+003
900.61  2.8718E+003
900.71  2.7545E+003
900.82  2.6693E+003
900.92  2.6330E+003
901.03  2.6418E+003
901.13  2.6658E+003
901.24  2.6746E+003
901.34  2.6478E+003
901.45  2.6000E+003
901.55  2.5066E+003
901.66  2.4179E+003
901.76  2.3512E+003
901.87  2.3280E+003
901.98  2.3018E+003
902.08  2.2941E+003
902.19  2.3305E+003
902.29  2.4046E+003
902.40  2.4486E+003
902.50  2.4850E+003
902.61  2.5028E+003
902.71  2.5071E+003
902.82  2.5159E+003
902.92  2.5497E+003
903.03  2.5981E+003
903.13  2.6523E+003
903.24  2.6812E+003
903.34  2.6651E+003
903.45  2.6274E+003
903.55  2.6155E+003
903.66  2.6143E+003
903.76  2.6219E+003
903.87  2.6542E+003
903.97  2.7193E+003
904.08  2.7663E+003
904.19  2.7851E+003
904.29  2.7662E+003
904.40  2.7212E+003
904.50  2.6533E+003
904.61  2.5804E+003
904.71  2.5081E+003
904.82  2.4729E+003
904.92  2.4360E+003
905.03  2.3531E+003
905.13  2.2510E+003
905.24  2.2018E+003
905.34  2.1521E+003
905.45  2.1247E+003
905.55  2.1703E+003
905.66  2.2383E+003
905.76  2.3026E+003
905.87  2.3692E+003
905.97  2.4110E+003
906.08  2.4039E+003
906.19  2.3641E+003
906.29  2.3086E+003
906.40  2.2893E+003
906.50  2.3136E+003
906.61  2.3406E+003
906.71  2.3853E+003
906.82  2.4510E+003
906.92  2.5404E+003
907.03  2.6120E+003
907.13  2.6918E+003
907.24  2.7512E+003
907.34  2.7781E+003
907.45  2.7797E+003
907.55  2.7815E+003
907.66  2.8083E+003
907.76  2.8323E+003
907.87  2.8411E+003
907.97  2.8352E+003
908.08  2.8327E+003
908.19  2.8394E+003
908.29  2.8652E+003
908.40  2.9008E+003
908.50  2.9261E+003
908.61  2.9439E+003
908.71  2.9261E+003
908.82  2.8743E+003
908.92  2.8189E+003
909.03  2.7695E+003
909.13  2.6641E+003
909.24  2.5575E+003
909.34  2.4795E+003
909.45  2.3876E+003
909.55  2.2955E+003
909.66  2.2459E+003
909.76  2.2183E+003
909.87  2.1963E+003
909.98  2.2205E+003
910.08  2.2549E+003
910.19  2.3062E+003
910.29  2.3468E+003
910.40  2.4148E+003
910.50  2.4965E+003
910.61  2.5808E+003
910.71  2.6587E+003
910.82  2.7389E+003
910.92  2.7775E+003
911.03  2.8108E+003
911.13  2.8641E+003
911.24  2.8980E+003
911.34  2.9269E+003
911.45  2.9516E+003
911.56  2.9549E+003
911.66  2.9391E+003
911.77  2.9316E+003
911.87  2.9003E+003
911.98  2.8622E+003
912.08  2.8274E+003
912.19  2.8051E+003
912.29  2.7469E+003
912.40  2.6945E+003
912.50  2.6701E+003
912.61  2.6557E+003
912.71  2.6235E+003
912.82  2.6061E+003
912.92  2.5991E+003
913.03  2.5543E+003
913.13  2.4515E+003
913.24  2.3262E+003
913.35  2.2158E+003
913.45  2.1276E+003
913.56  2.0864E+003
913.66  2.0756E+003
913.77  2.1114E+003
913.87  2.1849E+003
913.98  2.2690E+003
914.08  2.3535E+003
914.19  2.4199E+003
914.29  2.4809E+003
914.40  2.5157E+003
914.50  2.5277E+003
914.61  2.5620E+003
914.71  2.5974E+003
914.82  2.6177E+003
914.93  2.6400E+003
915.03  2.6593E+003
915.14  2.6375E+003
915.24  2.6455E+003
915.35  2.6692E+003
915.45  2.7028E+003
915.56  2.7426E+003
915.66  2.7838E+003
915.77  2.7949E+003
915.87  2.7683E+003
915.98  2.7112E+003
916.08  2.6302E+003
916.19  2.5439E+003
916.30  2.4312E+003
916.40  2.3383E+003
916.51  2.2864E+003
916.61  2.2541E+003
916.72  2.2746E+003
916.82  2.3386E+003
916.93  2.4158E+003
917.03  2.4745E+003
917.14  2.5066E+003
917.24  2.5074E+003
917.35  2.4925E+003
917.45  2.4867E+003
917.56  2.5078E+003
917.66  2.5633E+003
917.77  2.6337E+003
917.88  2.7056E+003
917.98  2.7701E+003
918.09  2.7907E+003
918.19  2.7764E+003
918.30  2.7940E+003
918.40  2.8370E+003
918.51  2.8768E+003
918.61  2.9332E+003
918.72  3.0060E+003
918.82  3.0409E+003
918.93  3.0411E+003
919.03  3.0027E+003
919.14  2.9310E+003
919.25  2.8105E+003
919.35  2.6942E+003
919.46  2.6169E+003
919.56  2.5751E+003
919.67  2.5922E+003
919.77  2.6626E+003
919.88  2.7354E+003
919.98  2.7615E+003
920.09  2.7485E+003
920.19  2.6794E+003
920.30  2.5729E+003
920.40  2.4420E+003
920.51  2.3545E+003
920.62  2.3042E+003
920.72  2.3139E+003
920.83  2.3517E+003
920.93  2.3873E+003
921.04  2.4312E+003
921.14  2.4963E+003
921.25  2.5658E+003
921.35  2.6405E+003
921.46  2.7047E+003
921.56  2.7458E+003
921.67  2.7590E+003
921.77  2.7580E+003
921.88  2.7753E+003
921.99  2.8069E+003
922.09  2.8469E+003
922.20  2.8841E+003
922.30  2.8946E+003
922.41  2.8900E+003
922.51  2.8864E+003
922.62  2.8542E+003
922.72  2.7970E+003
922.83  2.7677E+003
922.93  2.7370E+003
923.04  2.7286E+003
923.14  2.7682E+003
923.25  2.8429E+003
923.36  2.8665E+003
923.46  2.8300E+003
923.57  2.7451E+003
923.67  2.6262E+003
923.78  2.4985E+003
923.88  2.3978E+003
923.99  2.3336E+003
924.09  2.2729E+003
924.20  2.2173E+003
924.30  2.1663E+003
924.41  2.1219E+003
924.52  2.1020E+003
924.62  2.1220E+003
924.73  2.1519E+003
924.83  2.1710E+003
924.94  2.1947E+003
925.04  2.2334E+003
925.15  2.2802E+003
925.25  2.3518E+003
925.36  2.4261E+003
925.46  2.4987E+003
925.57  2.5714E+003
925.67  2.6476E+003
925.78  2.7055E+003
925.89  2.7740E+003
925.99  2.8347E+003
926.10  2.8770E+003
926.20  2.9101E+003
926.31  2.9099E+003
926.41  2.8851E+003
926.52  2.8462E+003
926.62  2.7795E+003
926.73  2.7073E+003
926.83  2.6287E+003
926.94  2.5688E+003
927.05  2.5190E+003
927.15  2.4593E+003
927.26  2.3864E+003
927.36  2.3189E+003
927.47  2.2742E+003
927.57  2.2226E+003
927.68  2.1986E+003
927.78  2.2185E+003
927.89  2.2791E+003
927.99  2.3487E+003
928.10  2.4011E+003
928.20  2.4189E+003
928.31  2.4069E+003
928.42  2.3482E+003
928.52  2.2684E+003
928.63  2.2462E+003
928.73  2.2812E+003
928.84  2.3151E+003
928.94  2.3769E+003
929.05  2.4633E+003
929.15  2.5272E+003
929.26  2.5671E+003
929.36  2.5913E+003
929.47  2.5968E+003
929.58  2.6207E+003
929.68  2.6896E+003
929.79  2.7671E+003
929.89  2.8562E+003
930.00  2.9402E+003
930.10  2.9831E+003
930.21  2.9679E+003
930.31  2.9342E+003
930.42  2.9054E+003
930.52  2.8484E+003
930.63  2.7711E+003
930.74  2.6865E+003
930.84  2.5954E+003
930.95  2.5507E+003
931.05  2.5554E+003
931.16  2.5522E+003
931.26  2.5308E+003
931.37  2.5279E+003
931.47  2.5115E+003
931.58  2.4846E+003
931.68  2.4824E+003
931.79  2.5026E+003
931.90  2.5304E+003
932.00  2.5664E+003
932.11  2.6046E+003
932.21  2.6648E+003
932.32  2.7364E+003
932.42  2.7828E+003
932.53  2.7995E+003
932.63  2.7910E+003
932.74  2.7437E+003
932.85  2.6878E+003
932.95  2.6561E+003
933.06  2.6228E+003
933.16  2.6081E+003
933.27  2.6489E+003
933.37  2.6810E+003
933.48  2.6946E+003
933.58  2.7193E+003
933.69  2.7322E+003
933.79  2.7444E+003
933.90  2.7603E+003
934.01  2.7519E+003
934.11  2.7315E+003
934.22  2.7091E+003
934.32  2.6502E+003
934.43  2.5971E+003
934.53  2.5690E+003
934.64  2.5400E+003
934.74  2.5017E+003
934.85  2.4721E+003
934.95  2.4527E+003
935.06  2.4481E+003
935.17  2.4639E+003
935.27  2.4884E+003
935.38  2.5208E+003
935.48  2.5120E+003
935.59  2.4654E+003
935.69  2.3990E+003
935.80  2.3330E+003
935.90  2.2663E+003
936.01  2.2655E+003
936.12  2.3255E+003
936.22  2.4079E+003
936.33  2.5148E+003
936.43  2.6276E+003
936.54  2.6917E+003
936.64  2.7521E+003
936.75  2.8118E+003
936.85  2.8426E+003
936.96  2.8411E+003
937.06  2.8561E+003
937.17  2.8331E+003
937.28  2.7735E+003
937.38  2.7461E+003
937.49  2.7236E+003
937.59  2.6921E+003
937.70  2.6907E+003
937.80  2.6855E+003
937.91  2.6441E+003
938.01  2.6377E+003
938.12  2.6176E+003
938.23  2.5833E+003
938.33  2.5614E+003
938.44  2.5305E+003
938.54  2.4772E+003
938.65  2.4337E+003
938.75  2.4058E+003
938.86  2.4083E+003
938.96  2.4372E+003
939.07  2.4696E+003
939.17  2.5194E+003
939.28  2.5313E+003
939.39  2.4853E+003
939.49  2.4408E+003
939.60  2.4159E+003
939.70  2.3937E+003
939.81  2.4119E+003
939.91  2.4792E+003
940.02  2.5409E+003
940.12  2.5933E+003
940.23  2.6332E+003
940.34  2.6723E+003
940.44  2.7044E+003
940.55  2.7383E+003
940.65  2.7685E+003
940.76  2.8254E+003
940.86  2.8804E+003
940.97  2.9067E+003
941.07  2.9151E+003
941.18  2.9203E+003
941.28  2.8941E+003
941.39  2.8766E+003
941.50  2.8428E+003
941.60  2.7940E+003
941.71  2.7468E+003
941.81  2.7158E+003
941.92  2.6528E+003
942.02  2.5815E+003
942.13  2.5918E+003
942.23  2.6228E+003
942.34  2.6023E+003
942.45  2.5879E+003
942.55  2.5889E+003
942.66  2.5235E+003
942.76  2.4176E+003
942.87  2.3318E+003
942.97  2.2843E+003
943.08  2.2920E+003
943.18  2.3311E+003
943.29  2.3441E+003
943.40  2.3848E+003
943.50  2.4246E+003
943.61  2.4396E+003
943.71  2.4502E+003
943.82  2.4930E+003
943.92  2.5547E+003
944.03  2.6118E+003
944.13  2.6798E+003
944.24  2.7508E+003
944.35  2.8360E+003
944.45  2.9043E+003
944.56  2.9285E+003
944.66  2.9185E+003
944.77  2.8792E+003
944.87  2.8215E+003
944.98  2.7658E+003
945.08  2.7298E+003
945.19  2.7078E+003
945.30  2.6918E+003
945.40  2.6779E+003
945.51  2.6257E+003
945.61  2.5279E+003
945.72  2.4718E+003
945.82  2.4458E+003
945.93  2.4299E+003
946.03  2.4510E+003
946.14  2.4854E+003
946.25  2.5097E+003
946.35  2.5137E+003
946.46  2.5089E+003
946.56  2.4975E+003
946.67  2.5063E+003
946.77  2.5002E+003
946.88  2.4960E+003
946.98  2.5380E+003
947.09  2.5771E+003
947.20  2.5876E+003
947.30  2.6055E+003
947.41  2.6409E+003
947.51  2.6511E+003
947.62  2.6763E+003
947.72  2.7225E+003
947.83  2.7566E+003
947.93  2.7778E+003
948.04  2.7897E+003
948.15  2.8013E+003
948.25  2.8260E+003
948.36  2.8448E+003
948.46  2.8466E+003
948.57  2.8643E+003
948.67  2.8770E+003
948.78  2.8801E+003
948.88  2.8765E+003
948.99  2.8669E+003
949.10  2.8133E+003
949.20  2.7321E+003
949.31  2.6310E+003
949.41  2.5333E+003
949.52  2.4782E+003
949.62  2.4492E+003
949.73  2.4246E+003
949.83  2.4350E+003
949.94  2.4485E+003
950.05  2.4276E+003
950.15  2.3789E+003
950.26  2.3593E+003
950.36  2.3421E+003
950.47  2.2904E+003
950.57  2.2398E+003
950.68  2.2306E+003
950.78  2.2611E+003
950.89  2.2895E+003
951.00  2.3908E+003
951.10  2.5162E+003
951.21  2.6436E+003
951.31  2.7580E+003
951.42  2.8570E+003
951.52  2.9112E+003
951.63  2.9281E+003
951.73  2.9418E+003
951.84  2.9299E+003
951.95  2.9106E+003
952.05  2.9156E+003
952.16  2.9070E+003
952.26  2.8584E+003
952.37  2.8204E+003
952.47  2.7893E+003
952.58  2.7601E+003
952.68  2.7207E+003
952.79  2.6853E+003
952.90  2.6393E+003
953.00  2.5495E+003
953.11  2.4506E+003
953.21  2.3552E+003
953.32  2.3128E+003
953.42  2.3016E+003
953.53  2.3150E+003
953.64  2.3377E+003
953.74  2.3767E+003
953.85  2.4076E+003
953.95  2.4208E+003
954.06  2.4287E+003
954.16  2.4683E+003
954.27  2.4904E+003
954.37  2.4627E+003
954.48  2.4372E+003
954.59  2.4685E+003
954.69  2.4795E+003
954.80  2.4989E+003
954.90  2.5304E+003
955.01  2.5759E+003
955.11  2.6140E+003
955.22  2.6561E+003
955.32  2.7029E+003
955.43  2.7685E+003
955.54  2.8338E+003
955.64  2.8577E+003
955.75  2.8779E+003
955.85  2.8946E+003
955.96  2.9059E+003
956.06  2.8731E+003
956.17  2.8217E+003
956.27  2.7454E+003
956.38  2.6818E+003
956.49  2.6135E+003
956.59  2.5485E+003
956.70  2.5004E+003
956.80  2.4647E+003
956.91  2.4150E+003
957.01  2.3693E+003
957.12  2.3494E+003
957.23  2.3314E+003
957.33  2.3407E+003
957.44  2.3715E+003
957.54  2.3993E+003
957.65  2.4081E+003
957.75  2.3989E+003
957.86  2.3740E+003
957.96  2.3556E+003
958.07  2.3635E+003
958.18  2.4133E+003
958.28  2.5020E+003
958.39  2.5905E+003
958.49  2.6591E+003
958.60  2.7000E+003
958.70  2.7333E+003
958.81  2.7609E+003
958.91  2.7631E+003
959.02  2.7717E+003
959.13  2.7779E+003
959.23  2.7653E+003
959.34  2.7317E+003
959.44  2.7098E+003
959.55  2.6933E+003
959.65  2.6664E+003
959.76  2.6797E+003
959.87  2.7093E+003
959.97  2.7014E+003
960.08  2.6705E+003
960.18  2.6358E+003
960.29  2.5767E+003
960.39  2.5212E+003
960.50  2.5128E+003
960.60  2.5219E+003
960.71  2.5494E+003
960.82  2.5781E+003
960.92  2.5713E+003
961.03  2.5329E+003
961.13  2.4982E+003
961.24  2.4486E+003
961.34  2.3896E+003
961.45  2.3658E+003
961.56  2.3607E+003
961.66  2.3611E+003
961.77  2.3814E+003
961.87  2.4171E+003
961.98  2.4457E+003
962.08  2.4934E+003
962.19  2.5456E+003
962.29  2.6096E+003
962.40  2.6614E+003
962.51  2.7100E+003
962.61  2.7551E+003
962.72  2.8206E+003
962.82  2.8799E+003
962.93  2.9108E+003
963.03  2.9028E+003
963.14  2.8694E+003
963.25  2.8174E+003
963.35  2.7711E+003
963.46  2.7277E+003
963.56  2.7326E+003
963.67  2.7748E+003
963.77  2.8161E+003
963.88  2.8544E+003
963.98  2.9026E+003
964.09  2.9147E+003
964.20  2.8370E+003
964.30  2.7421E+003
964.41  2.6368E+003
964.51  2.5212E+003
964.62  2.4263E+003
964.72  2.3856E+003
964.83  2.3717E+003
964.94  2.3475E+003
965.04  2.3444E+003
965.15  2.3323E+003
965.25  2.2909E+003
965.36  2.2446E+003
965.46  2.2174E+003
965.57  2.1979E+003
965.67  2.1788E+003
965.78  2.2073E+003
965.89  2.2543E+003
965.99  2.2851E+003
966.10  2.2995E+003
966.20  2.3415E+003
966.31  2.3826E+003
966.41  2.4381E+003
966.52  2.5064E+003
966.63  2.5907E+003
966.73  2.6698E+003
966.84  2.7266E+003
966.94  2.7774E+003
967.05  2.8421E+003
967.15  2.8990E+003
967.26  2.9297E+003
967.37  2.9707E+003
967.47  2.9783E+003
967.58  2.9441E+003
967.68  2.9192E+003
967.79  2.8833E+003
967.89  2.8104E+003
968.00  2.7434E+003
968.10  2.6959E+003
968.21  2.6404E+003
968.32  2.5939E+003
968.42  2.5622E+003
968.53  2.5430E+003
968.63  2.5123E+003
968.74  2.4957E+003
968.84  2.4844E+003
968.95  2.4819E+003
969.06  2.4956E+003
969.16  2.4938E+003
969.27  2.4840E+003
969.37  2.4676E+003
969.48  2.4257E+003
969.58  2.3471E+003
969.69  2.2943E+003
969.79  2.2606E+003
969.90  2.2717E+003
970.01  2.3517E+003
970.11  2.4513E+003
970.22  2.5230E+003
970.32  2.5941E+003
970.43  2.6491E+003
970.53  2.6635E+003
970.64  2.6785E+003
970.75  2.7249E+003
970.85  2.7281E+003
970.96  2.7273E+003
971.06  2.7594E+003
971.17  2.7812E+003
971.27  2.7595E+003
971.38  2.7334E+003
971.49  2.6797E+003
971.59  2.6035E+003
971.70  2.5343E+003
971.80  2.4921E+003
971.91  2.4552E+003
972.01  2.3873E+003
972.12  2.3329E+003
972.22  2.2775E+003
972.33  2.2254E+003
972.44  2.2161E+003
972.54  2.2468E+003
972.65  2.2844E+003
972.75  2.3159E+003
972.86  2.3513E+003
972.96  2.4175E+003
973.07  2.4614E+003
973.18  2.5219E+003
973.28  2.5921E+003
973.39  2.6711E+003
973.49  2.7541E+003
973.60  2.8219E+003
973.70  2.8543E+003
973.81  2.8701E+003
973.92  2.8648E+003
974.02  2.8126E+003
974.13  2.7588E+003
974.23  2.7139E+003
974.34  2.6674E+003
974.44  2.6378E+003
974.55  2.6335E+003
974.66  2.6231E+003
974.76  2.5973E+003
974.87  2.5733E+003
974.97  2.5429E+003
975.08  2.5202E+003
975.18  2.5166E+003
975.29  2.5074E+003
975.39  2.4787E+003
975.50  2.4602E+003
975.61  2.4391E+003
975.71  2.4295E+003
975.82  2.4551E+003
975.92  2.4996E+003
976.03  2.5027E+003
976.13  2.4916E+003
976.24  2.4787E+003
976.35  2.4867E+003
976.45  2.5060E+003
976.56  2.5440E+003
976.66  2.6002E+003
976.77  2.6448E+003
976.87  2.6538E+003
976.98  2.6417E+003
977.09  2.6400E+003
977.19  2.6423E+003
977.30  2.6402E+003
977.40  2.6661E+003
977.51  2.7293E+003
977.61  2.7719E+003
977.72  2.7846E+003
977.83  2.7999E+003
977.93  2.8165E+003
978.04  2.7877E+003
978.14  2.7645E+003
978.25  2.7623E+003
978.35  2.7561E+003
978.46  2.7367E+003
978.56  2.7603E+003
978.67  2.8054E+003
978.78  2.8407E+003
978.88  2.8717E+003
978.99  2.8818E+003
979.09  2.8364E+003
979.20  2.7620E+003
979.30  2.6867E+003
979.41  2.5962E+003
979.52  2.4919E+003
979.62  2.4301E+003
979.73  2.3882E+003
979.83  2.3423E+003
979.94  2.3354E+003
980.04  2.3516E+003
980.15  2.3699E+003
980.26  2.3719E+003
980.36  2.3720E+003
980.47  2.3620E+003
980.57  2.3623E+003
980.68  2.3723E+003
980.78  2.4106E+003
980.89  2.4690E+003
981.00  2.5596E+003
981.10  2.6343E+003
981.21  2.6810E+003
981.31  2.7227E+003
981.42  2.7437E+003
981.52  2.7396E+003
981.63  2.7423E+003
981.73  2.7712E+003
981.84  2.8190E+003
981.95  2.8398E+003
982.05  2.8245E+003
982.16  2.8010E+003
982.26  2.7636E+003
982.37  2.6852E+003
982.47  2.6126E+003
982.58  2.5830E+003
982.69  2.5525E+003
982.79  2.5111E+003
982.90  2.4871E+003
983.00  2.4710E+003
983.11  2.4456E+003
983.21  2.4329E+003
983.32  2.4385E+003
983.43  2.4403E+003
983.53  2.4181E+003
983.64  2.4047E+003
983.74  2.4092E+003
983.85  2.4117E+003
983.95  2.4084E+003
984.06  2.4297E+003
984.17  2.4590E+003
984.27  2.4756E+003
984.38  2.5006E+003
984.48  2.5176E+003
984.59  2.5220E+003
984.69  2.5253E+003
984.80  2.5043E+003
984.91  2.4964E+003
985.01  2.5189E+003
985.12  2.5424E+003
985.22  2.5786E+003
985.33  2.6178E+003
985.43  2.6220E+003
985.54  2.6255E+003
985.65  2.6654E+003
985.75  2.7050E+003
985.86  2.7355E+003
985.96  2.7751E+003
986.07  2.7855E+003
986.17  2.7689E+003
986.28  2.7643E+003
986.39  2.7650E+003
986.49  2.7551E+003
986.60  2.7478E+003
986.70  2.7180E+003
986.81  2.6435E+003
986.91  2.5359E+003
987.02  2.4391E+003
987.12  2.3537E+003
987.23  2.3265E+003
987.34  2.3308E+003
987.44  2.3628E+003
987.55  2.4014E+003
987.65  2.4368E+003
987.76  2.4462E+003
987.86  2.4305E+003
987.97  2.4204E+003
988.08  2.4477E+003
988.18  2.5041E+003
988.29  2.5564E+003
988.39  2.6342E+003
988.50  2.7065E+003
988.60  2.7536E+003
988.71  2.7507E+003
988.82  2.7484E+003
988.92  2.7532E+003
989.03  2.7326E+003
989.13  2.7264E+003
989.24  2.7528E+003
989.34  2.7954E+003
989.45  2.8183E+003
989.56  2.8239E+003
989.66  2.8209E+003
989.77  2.8022E+003
989.87  2.7823E+003
989.98  2.7732E+003
990.08  2.7735E+003
990.19  2.7535E+003
990.30  2.7606E+003
990.40  2.7364E+003
990.51  2.6916E+003
990.61  2.6586E+003
990.72  2.6317E+003
990.82  2.5520E+003
990.93  2.4813E+003
991.04  2.4152E+003
991.14  2.3621E+003
991.25  2.3417E+003
991.35  2.3481E+003
991.46  2.3723E+003
991.56  2.4001E+003
991.67  2.4397E+003
991.78  2.5006E+003
991.88  2.5425E+003
991.99  2.5903E+003
992.09  2.6662E+003
992.20  2.7158E+003
992.30  2.7262E+003
992.41  2.7735E+003
992.52  2.8390E+003
992.62  2.8755E+003
992.73  2.9263E+003
992.83  2.9901E+003
992.94  3.0489E+003
993.04  3.1101E+003
993.15  3.1506E+003
993.25  3.1442E+003
993.36  3.0913E+003
993.47  2.9899E+003
993.57  2.8907E+003
993.68  2.8098E+003
993.78  2.7742E+003
993.89  2.7455E+003
993.99  2.6880E+003
994.10  2.6195E+003
994.21  2.5384E+003
994.31  2.4584E+003
994.42  2.3883E+003
994.52  2.3349E+003
994.63  2.2905E+003
994.73  2.2536E+003
994.84  2.2339E+003
994.95  2.2447E+003
995.05  2.2693E+003
995.16  2.2935E+003
995.26  2.3115E+003
995.37  2.3064E+003
995.47  2.2946E+003
995.58  2.3004E+003
995.69  2.3383E+003
995.79  2.3774E+003
995.90  2.4308E+003
996.00  2.4820E+003
996.11  2.4841E+003
996.21  2.4780E+003
996.32  2.4509E+003
996.43  2.4343E+003
996.53  2.4414E+003
996.64  2.4727E+003
996.74  2.5062E+003
996.85  2.5813E+003
996.95  2.6216E+003
997.06  2.6049E+003
997.17  2.5888E+003
997.27  2.5642E+003
997.38  2.5137E+003
997.48  2.4881E+003
997.59  2.4731E+003
997.69  2.4583E+003
997.80  2.4241E+003
997.91  2.3675E+003
998.01  2.2999E+003
998.12  2.2703E+003
998.22  2.2359E+003
998.33  2.2288E+003
998.43  2.2448E+003
998.54  2.2631E+003
998.65  2.2799E+003
998.75  2.3032E+003
998.86  2.3266E+003
998.96  2.3432E+003
999.07  2.3543E+003
999.17  2.3605E+003
999.28  2.3661E+003
999.39  2.3589E+003
999.49  2.3555E+003
999.60  2.3940E+003
999.70  2.4460E+003
999.81  2.5173E+003
999.91  2.6163E+003
1000.02  2.6964E+003
1000.13  2.7417E+003
1000.23  2.7574E+003
1000.34  2.7627E+003
1000.44  2.7650E+003
1000.55  2.7588E+003
1000.65  2.7622E+003
1000.76  2.7711E+003
1000.87  2.7556E+003
1000.97  2.7216E+003
1001.08  2.7143E+003
1001.18  2.7179E+003
1001.29  2.7083E+003
1001.39  2.6946E+003
1001.50  2.6907E+003
1001.61  2.6480E+003
1001.71  2.5918E+003
1001.82  2.5265E+003
1001.92  2.4498E+003
1002.03  2.3791E+003
1002.13  2.3320E+003
1002.24  2.2870E+003
1002.35  2.2549E+003
1002.45  2.2464E+003
1002.56  2.2259E+003
1002.66  2.2108E+003
1002.77  2.2332E+003
1002.87  2.2697E+003
1002.98  2.3414E+003
1003.08  2.4538E+003
1003.19  2.5086E+003
1003.30  2.4985E+003
1003.40  2.5090E+003
1003.51  2.5024E+003
1003.61  2.4552E+003
1003.72  2.4579E+003
1003.82  2.5414E+003
1003.93  2.5956E+003
1004.04  2.6492E+003
1004.14  2.6978E+003
1004.25  2.7167E+003
1004.35  2.6965E+003
1004.46  2.6836E+003
1004.56  2.6701E+003
1004.67  2.6713E+003
1004.78  2.7087E+003
1004.88  2.7391E+003
1004.99  2.7416E+003
1005.09  2.6963E+003
1005.20  2.6415E+003
1005.30  2.5813E+003
1005.41  2.5399E+003
1005.52  2.4837E+003
1005.62  2.4500E+003
1005.73  2.4431E+003
1005.83  2.4147E+003
1005.94  2.3728E+003
1006.04  2.3724E+003
1006.15  2.3879E+003
1006.26  2.3699E+003
1006.36  2.3743E+003
1006.47  2.4005E+003
1006.57  2.4356E+003
1006.68  2.4827E+003
1006.78  2.5547E+003
1006.89  2.6178E+003
1007.00  2.6637E+003
1007.10  2.6919E+003
1007.21  2.7324E+003
1007.31  2.7789E+003
1007.42  2.8154E+003
1007.52  2.8904E+003
1007.63  2.9617E+003
1007.74  2.9900E+003
1007.84  2.9921E+003
1007.95  2.9613E+003
1008.05  2.9094E+003
1008.16  2.7777E+003
1008.26  2.2319E+003
1008.37  2.2319E+003
1008.48  0.0000E+000
